grid,density
-8.605087623947863,3.7848365556008865e-05
-8.587141126628214,4.169911117048457e-05
-8.569194629308564,4.550332209475548e-05
-8.551248131988915,4.926099832882088e-05
-8.533301634669266,5.29721398726811e-05
-8.515355137349616,5.663674672633658e-05
-8.497408640029967,6.025481888978656e-05
-8.479462142710318,6.382635636303139e-05
-8.461515645390667,6.73513591460714e-05
-8.443569148071019,7.082982723890591e-05
-8.42562265075137,7.42617606415353e-05
-8.40767615343172,7.764715935395986e-05
-8.38972965611207,8.098602337617899e-05
-8.371783158792422,8.808847578436769e-05
-8.353836661472771,9.55743227440643e-05
-8.335890164153122,0.00010296710032334977
-8.317943666833473,0.00011026680852222505
-8.299997169513823,0.00012114117670300112
-8.282050672194174,0.00013249635242169606
-8.264104174874525,0.00014643966185265872
-8.246157677554876,0.00017024760284030342
-8.228211180235226,0.0001981648270620943
-8.210264682915577,0.00023001415160117105
-8.192318185595928,0.0002614911986186066
-8.174371688276278,0.0002952618421964801
-8.156425190956629,0.00033024685787441866
-8.13847869363698,0.00036481306134051103
-8.12053219631733,0.00039999137161157104
-8.10258569899768,0.00043799023118314085
-8.084639201678032,0.0004755237438526593
-8.066692704358381,0.0005125919096201299
-8.048746207038732,0.0005491947284855455
-8.030799709719084,0.0005860497456860547
-8.012853212399433,0.0006259955463681669
-7.994906715079784,0.0006654294654580186
-7.976960217760134,0.0007043515029556157
-7.959013720440486,0.0007427616588609543
-7.941067223120836,0.0007806599331740382
-7.923120725801186,0.0008207575905855488
-7.905174228481537,0.0008618841313900338
-7.887227731161888,0.0009024522559120588
-7.869281233842238,0.0009424619641516222
-7.851334736522589,0.0009819132561087215
-7.8333882392029395,0.0010208061317833615
-7.815441741883291,0.0010591405911755374
-7.797495244563641,0.0011029613374566353
-7.779548747243991,0.0011567843426500254
-7.7616022499243424,0.0012146040924910157
-7.743655752604693,0.0012716327525985212
-7.725709255285043,0.0013297827804429597
-7.707762757965394,0.001390923794710568
-7.6898162606457445,0.0014541397343047708
-7.671869763326095,0.0015252646805002336
-7.653923266006446,0.0016020370891319184
-7.635976768686796,0.0016859666626890294
-7.618030271367147,0.0017764757395795916
-7.600083774047498,0.0018692506565727502
-7.582137276727848,0.0019643696544259927
-7.564190779408198,0.0020581856809534903
-7.54624428208855,0.0021535635651585773
-7.5282977847689,0.0022498139930296336
-7.51035128744925,0.0023531865531971966
-7.492404790129601,0.002461019765887882
-7.474458292809952,0.0025759556618551406
-7.456511795490302,0.002695394076186502
-7.438565298170653,0.0028223658371417937
-7.4206188008510034,0.002953868235658277
-7.402672303531354,0.003088968144828444
-7.384725806211705,0.003225776741977078
-7.366779308892055,0.0033661656003211135
-7.3488328115724055,0.0035198134715984236
-7.330886314252757,0.0036778465610287883
-7.312939816933107,0.003838761588677997
-7.294993319613458,0.004003671390092628
-7.2770468222938085,0.004182302697213171
-7.259100324974159,0.004364693616000146
-7.24115382765451,0.004546165899941571
-7.22320733033486,0.00473219964240166
-7.2052608330152115,0.004925114034607781
-7.187314335695562,0.005140572800502619
-7.169367838375912,0.00536050867966472
-7.151421341056263,0.005594735913782185
-7.133474843736614,0.005838135540085775
-7.115528346416964,0.006080395738567
-7.097581849097315,0.006324840529706972
-7.079635351777665,0.00658158913324785
-7.061688854458016,0.006861417283820901
-7.043742357138367,0.007147457607664244
-7.025795859818717,0.007439054485484707
-7.007849362499067,0.007732608732072641
-6.989902865179419,0.008042043700638754
-6.971956367859769,0.00836154903868032
-6.954009870540119,0.00869283003198633
-6.93606337322047,0.009037986824604424
-6.918116875900821,0.009391458647648114
-6.900170378581171,0.009755078911270657
-6.882223881261522,0.010132865363596573
-6.8642773839418725,0.01052061834882853
-6.846330886622223,0.010911600793808046
-6.828384389302574,0.011303412297480196
-6.810437891982924,0.01169797400048013
-6.792491394663275,0.012092080656248684
-6.774544897343626,0.012502574475492158
-6.756598400023976,0.01292511802198854
-6.738651902704326,0.01335895565483879
-6.7207054053846775,0.013795364046379188
-6.702758908065028,0.014242845018274932
-6.684812410745378,0.014703583348865385
-6.666865913425729,0.015171188153322251
-6.64891941610608,0.015654406492623944
-6.630972918786431,0.01615093331280164
-6.613026421466781,0.016659848305228778
-6.595079924147132,0.017187832751457275
-6.577133426827482,0.017725038333049836
-6.559186929507833,0.018285602958180186
-6.541240432188184,0.018855155308250285
-6.523293934868534,0.019423627907270553
-6.505347437548885,0.01999411402822962
-6.487400940229236,0.02058121376864654
-6.469454442909586,0.021188705477946504
-6.4515079455899365,0.021807255437901966
-6.433561448270288,0.022435490898708558
-6.415614950950638,0.023078640707165685
-6.397668453630988,0.02373449444251485
-6.379721956311339,0.02440014401207264
-6.36177545899169,0.025074776144711004
-6.34382896167204,0.02575756588830669
-6.325882464352391,0.02644818152563778
-6.3079359670327415,0.02714351196268157
-6.289989469713092,0.02783569940539114
-6.272042972393443,0.0285345483729987
-6.254096475073793,0.02925324380257461
-6.236149977754144,0.02998131235053604
-6.218203480434495,0.030721505853041103
-6.200256983114845,0.031464431786184646
-6.182310485795195,0.03221149043951659
-6.164363988475547,0.03296728994985512
-6.146417491155897,0.033742629280295554
-6.128470993836247,0.03452851680438832
-6.110524496516598,0.03531051225127539
-6.092577999196949,0.036097544363012386
-6.074631501877299,0.036906834743683815
-6.05668500455765,0.03774058530382933
-6.038738507238001,0.0385954756952976
-6.020792009918351,0.03945134809446297
-6.002845512598702,0.040311348575698396
-5.984899015279053,0.04118134815150921
-5.9669525179594025,0.042050684301911376
-5.949006020639754,0.04292331678507752
-5.931059523320105,0.04380725285862824
-5.913113026000454,0.044697180234276594
-5.8951665286808055,0.04559805334731796
-5.877220031361157,0.0465085398792516
-5.859273534041507,0.04743863405556313
-5.841327036721857,0.048394449686809254
-5.8233805394022085,0.04936781136523221
-5.805434042082559,0.050362993135701625
-5.787487544762909,0.051377026570469914
-5.76954104744326,0.052396552858980046
-5.7515945501236105,0.0534209876400462
-5.733648052803961,0.054459137875450744
-5.715701555484312,0.0555059909883605
-5.697755058164662,0.05656467396374017
-5.679808560845013,0.05763537325488795
-5.661862063525364,0.05872295108030586
-5.643915566205714,0.05982295048584877
-5.625969068886064,0.06094324491010442
-5.608022571566416,0.062074375406171445
-5.590076074246766,0.06320044855929254
-5.572129576927116,0.0643401283583597
-5.554183079607467,0.06550340002584072
-5.536236582287818,0.06668952364084012
-5.518290084968168,0.0678816976315751
-5.500343587648519,0.06907569442414567
-5.4823970903288695,0.07028888670357401
-5.46445059300922,0.07150152347709411
-5.446504095689571,0.07271983716326644
-5.428557598369921,0.07393539897331429
-5.4106111010502715,0.07514354309482922
-5.392664603730623,0.07633381700317854
-5.374718106410974,0.07751391900338382
-5.356771609091323,0.0787013127916108
-5.3388251117716745,0.07988302384897578
-5.320878614452026,0.08106430772080293
-5.302932117132375,0.08224829735613146
-5.284985619812726,0.0834213709185361
-5.2670391224930775,0.0845895284127535
-5.249092625173427,0.08575814923238428
-5.231146127853778,0.08692040469990794
-5.213199630534129,0.08807936474579003
-5.19525313321448,0.0892343315073866
-5.17730663589483,0.09039593397915119
-5.159360138575181,0.09156432440157336
-5.141413641255531,0.09273390503883117
-5.123467143935882,0.09389807111011517
-5.105520646616233,0.09505792747756896
-5.087574149296583,0.09620792632461024
-5.069627651976933,0.09734581699293171
-5.051681154657285,0.09848646224319785
-5.033734657337635,0.0996398143469803
-5.015788160017985,0.10077551117663061
-4.997841662698336,0.10189386229289567
-4.979895165378687,0.10301658607086366
-4.961948668059037,0.10414424065161998
-4.944002170739388,0.10527006777518323
-4.9260556734197385,0.10640829409589028
-4.908109176100089,0.10755294796498732
-4.89016267878044,0.10868455853203147
-4.87221618146079,0.10981017212222573
-4.854269684141141,0.11091692981164868
-4.836323186821492,0.1120112296633395
-4.818376689501842,0.11308898401572562
-4.800430192182192,0.11415436700920016
-4.7824836948625435,0.11520814950287224
-4.764537197542894,0.11626422380241633
-4.746590700223244,0.1173065156594646
-4.728644202903595,0.1183432052256817
-4.7106977055839465,0.11936658658857527
-4.692751208264296,0.12037604605667154
-4.674804710944647,0.12135375608587137
-4.656858213624998,0.1223055242438347
-4.638911716305348,0.12326638865247483
-4.620965218985699,0.12422531720188748
-4.603018721666049,0.12517348504369422
-4.5850722243464,0.12615770257927603
-4.567125727026751,0.12714302125653368
-4.549179229707101,0.12812465878967508
-4.531232732387452,0.12909502296624942
-4.5132862350678025,0.130045332010878
-4.495339737748154,0.13097596412166657
-4.477393240428504,0.13189204618641157
-4.459446743108854,0.1328180347690615
-4.441500245789205,0.1337232155442923
-4.423553748469556,0.13461126447157598
-4.405607251149906,0.13548115986784803
-4.387660753830257,0.13634494759082352
-4.3697142565106075,0.13720509513208812
-4.351767759190958,0.1380465858675219
-4.333821261871309,0.13887775311005787
-4.315874764551659,0.13970390743676248
-4.29792826723201,0.14052331486446729
-4.279981769912361,0.14133350267745398
-4.262035272592711,0.1421175368164302
-4.244088775273061,0.14289025736981573
-4.226142277953413,0.14365669267871528
-4.208195780633763,0.1444043897963545
-4.190249283314113,0.14513735702368727
-4.172302785994464,0.1458553951086007
-4.154356288674815,0.146551275443876
-4.136409791355166,0.14723582538534283
-4.118463294035516,0.1479158138450003
-4.100516796715866,0.1485706211496053
-4.082570299396218,0.14920043963870083
-4.064623802076568,0.1498126440814483
-4.046677304756918,0.15040453255179473
-4.028730807437269,0.15098436341243932
-4.01078431011762,0.15154082642130745
-3.99283781279797,0.15207198977219583
-3.974891315478321,0.15257771090278754
-3.9569448181586715,0.15307055396909888
-3.938998320839022,0.15354561193823493
-3.921051823519373,0.1539927444553169
-3.9031053261997233,0.15441572534270043
-3.8851588288800736,0.15482402556553637
-3.8672123315604248,0.15522399261096237
-3.849265834240775,0.15560678999731237
-3.8313193369211263,0.15597368557171842
-3.8133728396014765,0.15631263753018676
-3.795426342281827,0.156611920106588
-3.777479844962178,0.15688991685540726
-3.7595333476425283,0.157167165712461
-3.7415868503228786,0.15745748176122004
-3.72364035300323,0.15772293976523458
-3.70569385568358,0.15795479035245918
-3.6877473583639304,0.1581632418565733
-3.6698008610442816,0.1583521081661242
-3.651854363724632,0.1585177867867083
-3.633907866404982,0.15865673438638003
-3.6159613690853334,0.15878487119916676
-3.5980148717656837,0.1589027715398956
-3.580068374446034,0.15900443139449433
-3.562121877126385,0.1590978844046777
-3.5441753798067355,0.1591716054100214
-3.5262288824870858,0.1592187090577022
-3.508282385167437,0.1592429145784784
-3.4903358878477873,0.15924811951566564
-3.4723893905281384,0.1592281739896097
-3.4544428932084887,0.15919249019897524
-3.436496395888839,0.15913729607159693
-3.4185498985691902,0.1590630893997357
-3.4006034012495405,0.15895890176081096
-3.382656903929891,0.15884184105270727
-3.364710406610242,0.1587158214370848
-3.3467639092905923,0.158567929908283
-3.3288174119709426,0.15840503616454427
-3.310870914651294,0.1582207301163983
-3.292924417331644,0.1580284021802182
-3.2749779200119944,0.15781562645016542
-3.2570314226923456,0.15757657004466802
-3.239084925372696,0.1573331975039858
-3.221138428053046,0.15706750757899562
-3.2031919307333974,0.15677585640627945
-3.1852454334137477,0.15646388625420407
-3.167298936094099,0.15613973780587037
-3.149352438774449,0.15580530046289134
-3.1314059414547994,0.1554492744811595
-3.1134594441351506,0.15508715312666782
-3.095512946815501,0.15472996816337853
-3.0775664494958512,0.15435335296574268
-3.0596199521762024,0.15396155749576915
-3.0416734548565527,0.15356116382309384
-3.023726957536903,0.15314139013405748
-3.005780460217254,0.15270840637596092
-2.9878339628976045,0.15224835258075908
-2.969887465577955,0.15177144247612828
-2.951940968258306,0.1512802028451735
-2.9339944709386563,0.150782975714156
-2.9160479736190066,0.15027368754221868
-2.8981014762993578,0.14974214909381928
-2.880154978979708,0.14917900440302004
-2.8622084816600584,0.14859202410013025
-2.8442619843404096,0.14799739122680108
-2.82631548702076,0.14739915861233518
-2.808368989701111,0.14678652998693234
-2.7904224923814613,0.14614301590744505
-2.7724759950618116,0.1454838203230765
-2.754529497742163,0.14482636078048175
-2.736583000422513,0.14417946582582936
-2.7186365031028634,0.14352730748095266
-2.7006900057832146,0.14285214306478797
-2.682743508463565,0.1421599601645282
-2.664797011143915,0.14145314134813047
-2.6468505138242664,0.14072110894740852
-2.6289040165046167,0.13997312865819936
-2.610957519184967,0.1392080289335462
-2.593011021865318,0.13842576351908206
-2.5750645245456685,0.13764084354200218
-2.5571180272260188,0.13684262216565454
-2.53917152990637,0.136038958932014
-2.5212250325867203,0.1352438729924167
-2.5032785352670714,0.13445183440579156
-2.4853320379474217,0.1336669533174771
-2.467385540627772,0.13288367096191356
-2.4494390433081232,0.1320855786010687
-2.4314925459884735,0.1312727453098426
-2.413546048668824,0.13046438612271793
-2.395599551349175,0.12966175644143493
-2.3776530540295253,0.12885944181891806
-2.3597065567098756,0.1280540305017987
-2.341760059390227,0.1272556781431803
-2.323813562070577,0.1264658628506715
-2.3058670647509274,0.12568683480164933
-2.2879205674312786,0.12490594469979997
-2.269974070111629,0.1241097410350963
-2.252027572791979,0.12331466315519896
-2.2340810754723304,0.12253129119395816
-2.2161345781526807,0.12176551742284941
-2.198188080833032,0.12100001202398229
-2.180241583513382,0.12022459416068186
-2.1622950861937325,0.11945477398700685
-2.1443485888740836,0.1186709406838726
-2.126402091554434,0.11788195900521128
-2.1084555942347842,0.11708631808626653
-2.0905090969151354,0.11627682863582334
-2.0725625995954857,0.11544189120392268
-2.054616102275836,0.11459619858828474
-2.036669604956187,0.11375965747155915
-2.0187231076365375,0.1129147254872111
-2.000776610316888,0.11207714251542937
-1.982830112997239,0.1112502044992787
-1.9648836156775893,0.11041320087664104
-1.9469371183579396,0.10956495029602951
-1.9289906210382908,0.10872236153709727
-1.911044123718641,0.10787994987303678
-1.8930976263989914,0.1070270050659781
-1.8751511290793426,0.10617259144982026
-1.8572046317596929,0.1053342765095222
-1.839258134440044,0.10450591663017998
-1.8213116371203943,0.10368177060043024
-1.8033651398007446,0.10286200971629102
-1.7854186424810958,0.10205083903314564
-1.7674721451614461,0.10124395577906804
-1.7495256478417964,0.1004348102990746
-1.7315791505221476,0.09962859368953321
-1.713632653202498,0.0988399873209511
-1.6956861558828482,0.09804219637502003
-1.6777396585631994,0.09723989932283703
-1.6597931612435497,0.0964408697905752
-1.6418466639239,0.09565397691259095
-1.6239001666042512,0.09487257768896393
-1.6059536692846015,0.09410878001409845
-1.5880071719649518,0.09335492774139283
-1.570060674645303,0.09259677997616461
-1.5521141773256533,0.09184379694106747
-1.5341676800060045,0.09107910922300268
-1.5162211826863548,0.0903176741555453
-1.498274685366705,0.08954628167072697
-1.4803281880470562,0.08877297546039764
-1.4623816907274065,0.08799720209604821
-1.4444351934077568,0.08723782864115222
-1.426488696088108,0.08647017785148889
-1.4085421987684583,0.08570327872896213
-1.3905957014488086,0.08493133209513785
-1.3726492041291598,0.08416107774492598
-1.35470270680951,0.08338559336419583
-1.3367562094898604,0.08259940095439741
-1.3188097121702116,0.08183621090771516
-1.3008632148505619,0.081084462539489
-1.2829167175309122,0.08033488400493453
-1.2649702202112634,0.07963889255032841
-1.2470237228916137,0.0789695813683701
-1.229077225571964,0.0783147603428575
-1.2111307282523152,0.07766219665255823
-1.1931842309326655,0.07700897367177598
-1.1752377336130166,0.07635841784564344
-1.157291236293367,0.07571910883425256
-1.1393447389737172,0.07510428340810126
-1.1213982416540684,0.07448404684080473
-1.1034517443344187,0.07386563709736617
-1.085505247014769,0.07325104193258627
-1.0675587496951202,0.07264961362062851
-1.0496122523754705,0.07207193417144547
-1.0316657550558208,0.07150174875266282
-1.013719257736172,0.0709433712818668
-0.9957727604165223,0.07039644885737499
-0.9778262630968726,0.0698629873563933
-0.9598797657772238,0.06934347077620508
-0.9419332684575741,0.06882762075884738
-0.9239867711379244,0.06832883486867421
-0.9060402738182756,0.0678514164706442
-0.8880937764986259,0.06738573733493496
-0.870147279178977,0.06693425672426362
-0.8522007818593273,0.06649645784409643
-0.8342542845396776,0.0660568663065701
-0.8163077872200288,0.06563895678004958
-0.7983612899003791,0.06524184371704073
-0.7804147925807294,0.06484207346141374
-0.7624682952610806,0.06444054198850069
-0.7445217979414309,0.0640512211830949
-0.7265753006217812,0.06366851279026453
-0.7086288033021324,0.06329657568966254
-0.6906823059824827,0.06292265166660771
-0.672735808662833,0.06254756174040313
-0.6547893113431842,0.06217588682438675
-0.6368428140235345,0.06181456757529167
-0.6188963167038848,0.06146528822881029
-0.6009498193842351,0.061123263534348125
-0.5830033220645863,0.06078264879747373
-0.5650568247449375,0.06044878510963659
-0.5471103274252869,0.06011686027342469
-0.5291638301056381,0.059806371210737556
-0.5112173327859892,0.05950302923363106
-0.49327083546633865,0.059200814798809044
-0.47532433814668984,0.05889312107218888
-0.457377840827041,0.05859781507398998
-0.43943134350739044,0.058326166727015814
-0.4214848461877416,0.05808840806018464
-0.4035383488680928,0.05786486433178797
-0.385591851548444,0.057644488456595436
-0.3676453542287934,0.057439987350709515
-0.3496988569091446,0.0572363077339746
-0.3317523595894958,0.0570337648112501
-0.3138058622698452,0.05683634517846496
-0.2958593649501964,0.05665330673290782
-0.27791286763054757,0.056490515171381
-0.259966370310897,0.05634048393550315
-0.24201987299124816,0.056196792307323246
-0.22407337567159935,0.056053463432687266
-0.20612687835194876,0.05591405695651033
-0.18818038103229995,0.055783419346066135
-0.17023388371265114,0.05566951374729354
-0.15228738639300055,0.055567130066874214
-0.13434088907335173,0.0554629748292247
-0.11639439175370292,0.055371460282118104
-0.09844789443405233,0.055294943532312714
-0.08050139711440352,0.05521647725485032
-0.0625548997947547,0.055137824759275256
-0.044608402475104114,0.05507001532430796
-0.0266619051554553,0.05501059860500861
-0.008715407835806488,0.05495893245358096
0.009231089483844102,0.054903713571407005
0.027177586803492915,0.05485846843504909
0.04512408412314173,0.054804409452001136
0.06307058144279232,0.054761594213677475
0.08101707876244113,0.05472364564425664
0.09896357608208994,0.05468351927410518
0.11691007340174053,0.05466237245230499
0.13485657072138935,0.05466366045575345
0.15280306804103816,0.054663985009617944
0.17074956536068875,0.05466944331665853
0.18869606268033756,0.05467975335984435
0.20664255999998637,0.05470229662003059
0.22458905731963696,0.05474662386254706
0.24253555463928578,0.0547940697341418
0.2604820519589346,0.0548510764609833
0.2784285492785834,0.05491780929410744
0.296375046598234,0.0549900090508015
0.3143215439178828,0.05507356446126214
0.3322680412375316,0.05515296608608934
0.3502145385571822,0.05525528684951681
0.368161035876831,0.0553634770623714
0.38610753319647984,0.055482297009483726
0.4040540305161304,0.055606868946802945
0.42200052783577924,0.05572318824364529
