grid,density
-25575.15911540522,1.4684033973972828e-08
-25545.92711696207,1.7384835298395318e-08
-25516.69511851892,2.005299854034747e-08
-25487.46312007577,2.268852369982954e-08
-25458.23112163262,2.5291410776840964e-08
-25428.99912318947,2.786165977138201e-08
-25399.767124746322,3.0399270683452694e-08
-25370.53512630317,3.2904243513053325e-08
-25341.30312786002,3.537657826018328e-08
-25312.071129416872,3.7816274924842883e-08
-25282.839130973724,4.022333350703213e-08
-25253.60713253057,4.4200480296947126e-08
-25224.375134087422,4.9395898494813634e-08
-25195.143135644274,5.5011039597353295e-08
-25165.911137201125,6.294222438713077e-08
-25136.679138757972,7.077549492949808e-08
-25107.447140314824,7.851085122445334e-08
-25078.215141871675,8.614829327199749e-08
-25048.983143428526,9.520217442704192e-08
-25019.751144985374,1.0549842859094212e-07
-24990.519146542225,1.1566413042495961e-07
-24961.287148099076,1.2569927992909562e-07
-24932.055149655927,1.3560387710335017e-07
-24902.823151212775,1.4537792194772452e-07
-24873.591152769626,1.5502141446221623e-07
-24844.359154326477,1.645343546468264e-07
-24815.12715588333,1.739167425015552e-07
-24785.89515744018,1.8316857802640251e-07
-24756.663158997027,1.9228986122136953e-07
-24727.43116055388,2.0170616474306813e-07
-24698.19916211073,2.1480094051603305e-07
-24668.96716366758,2.320930505045549e-07
-24639.73516522443,2.491566939157863e-07
-24610.50316678128,2.659918707497231e-07
-24581.27116833813,2.825985810063674e-07
-24552.039169894982,2.9897682468571914e-07
-24522.80717145183,3.1512660178778024e-07
-24493.57517300868,3.3168848056322235e-07
-24464.343174565533,3.50245881493584e-07
-24435.111176122384,3.712969241004196e-07
-24405.87917767923,3.9504444062841854e-07
-24376.647179236083,4.184655763317109e-07
-24347.415180792934,4.423985512924969e-07
-24318.183182349785,4.688922552088439e-07
-24288.951183906633,4.984902065270091e-07
-24259.719185463484,5.290874675292218e-07
-24230.487187020335,5.592604334593198e-07
-24201.255188577186,5.890091043173034e-07
-24172.023190134038,6.183334801031724e-07
-24142.791191690885,6.480258928741298e-07
-24113.559193247736,6.793645156195005e-07
-24084.327194804588,7.102462052102862e-07
-24055.09519636144,7.406709616464865e-07
-24025.863197918286,7.706387849281059e-07
-23996.631199475138,8.001496750551362e-07
-23967.39920103199,8.292036320275815e-07
-23938.16720258884,8.578006558454417e-07
-23908.935204145688,8.86484601825971e-07
-23879.70320570254,9.186782388274956e-07
-23850.47120725939,9.529925149907089e-07
-23821.23920881624,9.910236876938208e-07
-23792.00721037309,1.0285551037732946e-06
-23762.77521192994,1.0680440062702107e-06
-23733.54321348679,1.1115070516688303e-06
-23704.311215043643,1.1557815166487591e-06
-23675.07921660049,1.2011272781855249e-06
-23645.84721815734,1.2497546344746358e-06
-23616.615219714193,1.3030814203114102e-06
-23587.383221271044,1.3577003022037328e-06
-23558.151222827895,1.4145098270263967e-06
-23528.919224384743,1.4742255720188717e-06
-23499.687225941594,1.5345373802028737e-06
-23470.455227498445,1.5953241714034288e-06
-23441.223229055293,1.6587796590353712e-06
-23411.991230612144,1.7233309085952176e-06
-23382.759232168995,1.7868703775984832e-06
-23353.527233725847,1.8493980660451672e-06
-23324.295235282698,1.910913973935269e-06
-23295.063236839545,1.971532513358201e-06
-23265.831238396397,2.036639330939299e-06
-23236.599239953248,2.10079839866802e-06
-23207.3672415101,2.166749546560889e-06
-23178.135243066947,2.2315936982652053e-06
-23148.903244623798,2.2953281551655196e-06
-23119.67124618065,2.3601926754081497e-06
-23090.4392477375,2.4274259707044157e-06
-23061.207249294348,2.493484295031758e-06
-23031.9752508512,2.5601650716602763e-06
-23002.74325240805,2.6278807983457854e-06
-22973.5112539649,2.6989635183120134e-06
-22944.279255521753,2.7693037818750104e-06
-22915.0472570786,2.840706535915415e-06
-22885.81525863545,2.913673693249298e-06
-22856.583260192303,2.985304589084464e-06
-22827.35126174915,3.0564328864494113e-06
-22798.119263306,3.1299006791827125e-06
-22768.887264862853,3.203199887980869e-06
-22739.655266419704,3.275207914733188e-06
-22710.423267976556,3.3502136592219076e-06
-22681.191269533403,3.4249936326131388e-06
-22651.959271090254,3.4983048922931937e-06
-22622.727272647106,3.5701474382620824e-06
-22593.495274203957,3.6405212705198055e-06
-22564.263275760804,3.7120386411258815e-06
-22535.031277317656,3.782317178023141e-06
-22505.799278874507,3.8510943631267655e-06
-22476.567280431358,3.918370196436754e-06
-22447.335281988206,3.984144677953113e-06
-22418.103283545057,4.048417807675827e-06
-22388.871285101908,4.111594433086112e-06
-22359.63928665876,4.180503310191935e-06
-22330.40728821561,4.251668224922963e-06
-22301.17528977246,4.321201235530478e-06
-22271.94329132931,4.390883379164127e-06
-22242.71129288616,4.462876028950452e-06
-22213.47929444301,4.533171498448328e-06
-22184.24729599986,4.601769787657737e-06
-22155.01529755671,4.6686708965786855e-06
-22125.783299113562,4.734924013048932e-06
-22096.551300670413,4.801290685308573e-06
-22067.31930222726,4.867715354711993e-06
-22038.087303784112,4.938898119942828e-06
-22008.855305340963,5.011448057314013e-06
-21979.623306897814,5.084631247120198e-06
-21950.391308454662,5.161392547305816e-06
-21921.159310011513,5.236858100860459e-06
-21891.927311568365,5.312930645448035e-06
-21862.695313125216,5.387322297495385e-06
-21833.463314682063,5.459723026512052e-06
-21804.231316238915,5.5301761753974665e-06
-21774.999317795766,5.601466373506988e-06
-21745.767319352617,5.671461922206802e-06
-21716.535320909465,5.74156855403643e-06
-21687.303322466316,5.8106009398232085e-06
-21658.071324023167,5.8794558600196255e-06
-21628.83932558002,5.9462219429379375e-06
-21599.607327136866,6.010899188578155e-06
-21570.375328693717,6.075009962857194e-06
-21541.14333025057,6.141235913375752e-06
-21511.91133180742,6.205307750451268e-06
-21482.67933336427,6.2683098175222484e-06
-21453.44733492112,6.330932952672476e-06
-21424.21533647797,6.3913693362971875e-06
-21394.98333803482,6.449618968396382e-06
-21365.75133959167,6.505681848970067e-06
-21336.51934114852,6.55955797801823e-06
-21307.28734270537,6.611456392423972e-06
-21278.055344262222,6.6676816380822615e-06
-21248.823345819073,6.72651174523248e-06
-21219.59134737592,6.789750799372524e-06
-21190.359348932772,6.852377258870382e-06
-21161.127350489623,6.915036818088686e-06
-21131.895352046475,6.9756768446479525e-06
-21102.663353603326,7.0338690150219395e-06
-21073.431355160174,7.093866856071646e-06
-21044.199356717025,7.15374341469698e-06
-21014.967358273876,7.213083849801834e-06
-20985.735359830724,7.2702524548663565e-06
-20956.503361387575,7.330137158989658e-06
-20927.271362944426,7.390164119129966e-06
-20898.039364501277,7.450645070707537e-06
-20868.80736605813,7.509991073762139e-06
-20839.575367614976,7.568779888750191e-06
-20810.343369171827,7.633958000821605e-06
-20781.11137072868,7.69788820207214e-06
-20751.879372285526,7.759328598432305e-06
-20722.647373842377,7.820447623650431e-06
-20693.41537539923,7.880975045937171e-06
-20664.18337695608,7.939195685623174e-06
-20634.95137851293,7.995194188450739e-06
-20605.71938006978,8.05314319280719e-06
-20576.48738162663,8.108806112061531e-06
-20547.25538318348,8.164635300588465e-06
-20518.02338474033,8.22059391969891e-06
-20488.79138629718,8.277208406317357e-06
-20459.55938785403,8.331934176474734e-06
-20430.327389410882,8.384947726579526e-06
-20401.095390967734,8.439331444139988e-06
-20371.86339252458,8.490614543865777e-06
-20342.631394081433,8.538797025756875e-06
-20313.399395638284,8.587572294824807e-06
-20284.167397195135,8.635255224650794e-06
-20254.935398751986,8.680666252619884e-06
-20225.703400308834,8.727750892269138e-06
-20196.471401865685,8.771604361753811e-06
-20167.239403422536,8.812226661073922e-06
-20138.007404979384,8.851838460356885e-06
-20108.775406536235,8.893387090141253e-06
-20079.543408093086,8.93736820934819e-06
-20050.311409649938,8.979612990997748e-06
-20021.07941120679,9.024316830757544e-06
-19991.847412763636,9.068112940368124e-06
-19962.615414320488,9.109540607790368e-06
-19933.38341587734,9.15434392963989e-06
-19904.151417434186,9.203144787998348e-06
-19874.919418991038,9.252038159065326e-06
-19845.68742054789,9.302555789588699e-06
-19816.45542210474,9.357810328030296e-06
-19787.22342366159,9.414235722571035e-06
-19757.99142521844,9.468914672444832e-06
-19728.75942677529,9.523175458144275e-06
-19699.52742833214,9.575255639717913e-06
-19670.295429888993,9.62568623082841e-06
-19641.063431445844,9.675191985693685e-06
-19611.83143300269,9.726089369599799e-06
-19582.599434559543,9.777654422205331e-06
-19553.367436116394,9.831899224350124e-06
-19524.13543767324,9.888301815911853e-06
-19494.903439230093,9.948622744063987e-06
-19465.671440786944,1.0005839839207542e-05
-19436.439442343795,1.0059042450207227e-05
-19407.207443900646,1.0108230577063055e-05
-19377.975445457494,1.0155295609487245e-05
-19348.743447014345,1.0202262484945637e-05
-19319.511448571197,1.0252048099188079e-05
-19290.279450128044,1.030222546277575e-05
-19261.047451684895,1.0354061851560148e-05
-19231.815453241747,1.0407501440132124e-05
-19202.583454798598,1.045916271397333e-05
-19173.35145635545,1.0508059630159078e-05
-19144.119457912297,1.0562876146926251e-05
-19114.887459469148,1.062531049094182e-05
-19085.655461026,1.0686594851515231e-05
-19056.42346258285,1.0743625114962366e-05
-19027.1914641397,1.080153406614935e-05
-18997.95946569655,1.0858548073252255e-05
-18968.7274672534,1.091714596110295e-05
-18939.49546881025,1.0974012737403834e-05
-18910.2634703671,1.1029309880069401e-05
-18881.03147192395,1.1081178841370488e-05
-18851.7994734808,1.1136152190929838e-05
-18822.567475037653,1.1193850743238385e-05
-18793.335476594504,1.1253439242581879e-05
-18764.10347815135,1.1312398709140473e-05
-18734.871479708203,1.137598015901333e-05
-18705.639481265054,1.1443008050808787e-05
-18676.4074828219,1.151142987484773e-05
-18647.175484378753,1.1589912555462887e-05
-18617.943485935604,1.1665111059200083e-05
-18588.711487492455,1.1743577521022481e-05
-18559.479489049307,1.1826195553831563e-05
-18530.247490606154,1.1909000551627536e-05
-18501.015492163006,1.1988716163553464e-05
-18471.783493719857,1.20700573723204e-05
-18442.551495276704,1.2152263737951791e-05
-18413.31949683356,1.2231634377924142e-05
-18384.087498390407,1.2310011313213604e-05
-18354.855499947258,1.2392230531630807e-05
-18325.62350150411,1.2471167229044604e-05
-18296.391503060957,1.2549350301196431e-05
-18267.159504617808,1.2631768552785201e-05
-18237.92750617466,1.2712299715047288e-05
-18208.69550773151,1.2792023676059682e-05
-18179.463509288362,1.2869850548652996e-05
-18150.23151084521,1.2946538012873913e-05
-18120.99951240206,1.302810200877688e-05
-18091.767513958912,1.3117353611089821e-05
-18062.53551551576,1.3206064659650501e-05
-18033.30351707261,1.3305977401095323e-05
-18004.071518629462,1.3409878362276046e-05
-17974.839520186313,1.3511061226005758e-05
-17945.607521743164,1.361454438081782e-05
-17916.375523300012,1.3722840894663598e-05
-17887.143524856863,1.3830394509149852e-05
-17857.911526413714,1.393715805710445e-05
-17828.679527970562,1.4043077513897201e-05
-17799.447529527413,1.4150478113585027e-05
-17770.215531084265,1.4259624940151445e-05
-17740.983532641116,1.4374000619176765e-05
-17711.751534197967,1.4501254127652495e-05
-17682.519535754815,1.4628442859789257e-05
-17653.287537311666,1.4752115113715273e-05
-17624.055538868517,1.4877761232856698e-05
-17594.82354042537,1.5004492001918186e-05
-17565.59154198222,1.5133596052911593e-05
-17536.359543539067,1.5265016237495263e-05
-17507.12754509592,1.5399346133590593e-05
-17477.89554665277,1.5532031258512248e-05
-17448.663548209617,1.5663442048311488e-05
-17419.43154976647,1.579009099337882e-05
-17390.19955132332,1.591752571098277e-05
-17360.96755288017,1.604426764412145e-05
-17331.735554437022,1.6177452732604276e-05
-17302.50355599387,1.6311635781363595e-05
-17273.27155755072,1.644829400146943e-05
-17244.039559107572,1.6584409579305807e-05
-17214.80756066442,1.67169669538962e-05
-17185.575562221275,1.685451301456029e-05
-17156.343563778122,1.6998946582221252e-05
-17127.111565334973,1.7147102074892013e-05
-17097.879566891825,1.7296914372978445e-05
-17068.647568448672,1.7456201437984406e-05
-17039.415570005523,1.7619289834819494e-05
-17010.183571562375,1.778163332958475e-05
-16980.951573119222,1.7945329190325778e-05
-16951.719574676077,1.8114532625205964e-05
-16922.487576232925,1.8284571825401222e-05
-16893.255577789776,1.8450162635717764e-05
-16864.023579346627,1.8621413047415064e-05
-16834.791580903475,1.879219904574515e-05
-16805.559582460326,1.8964842581597934e-05
-16776.327584017177,1.914199993972233e-05
-16747.095585574025,1.932329269002698e-05
-16717.86358713088,1.9507163183989147e-05
-16688.631588687727,1.9691872762634727e-05
-16659.39959024458,1.9874528538422155e-05
-16630.16759180143,2.0053141111453915e-05
-16600.935593358277,2.0231818964840954e-05
-16571.703594915132,2.0412445460287883e-05
-16542.47159647198,2.0594225840530782e-05
-16513.23959802883,2.0772962819731583e-05
-16484.007599585682,2.0947657516371795e-05
-16454.77560114253,2.1114757720002978e-05
-16425.54360269938,2.1277550523256078e-05
-16396.311604256232,2.1448276337934755e-05
-16367.079605813082,2.1629801483104706e-05
-16337.847607369933,2.1807907733493118e-05
-16308.615608926782,2.1987427690546374e-05
-16279.383610483634,2.217573449941836e-05
-16250.151612040483,2.2366825232981836e-05
-16220.919613597334,2.256395559175481e-05
-16191.687615154184,2.275823063191305e-05
-16162.455616711035,2.2948025202766202e-05
-16133.223618267884,2.3141239091119947e-05
-16103.991619824736,2.3339470342103956e-05
-16074.759621381585,2.354008174382077e-05
-16045.527622938436,2.3743314725576275e-05
-16016.295624495287,2.3941326258812786e-05
-15987.063626052137,2.413506147829211e-05
-15957.831627608988,2.432182336946282e-05
-15928.599629165838,2.450536898492395e-05
-15899.367630722689,2.4693825342198938e-05
-15870.135632279538,2.48812223066651e-05
-15840.90363383639,2.5066308249140866e-05
-15811.671635393239,2.5253794363271305e-05
-15782.43963695009,2.544315862869957e-05
-15753.20763850694,2.5632739842869624e-05
-15723.97564006379,2.5818120099127562e-05
-15694.74364162064,2.599661555371247e-05
-15665.511643177491,2.616929390722512e-05
-15636.27964473434,2.6345793728110435e-05
-15607.047646291192,2.6520469211048128e-05
-15577.815647848041,2.6691769776256446e-05
-15548.583649404893,2.6862406955468786e-05
-15519.351650961742,2.7041248726872233e-05
-15490.119652518593,2.7214047883220766e-05
-15460.887654075443,2.7385561796843193e-05
-15431.655655632294,2.7558819640435004e-05
-15402.423657189143,2.7725183955316403e-05
-15373.191658745995,2.788823918829826e-05
-15343.959660302846,2.8049991385379536e-05
-15314.727661859695,2.820889275830882e-05
-15285.495663416546,2.8361683812851166e-05
-15256.263664973396,2.8508751052945315e-05
-15227.031666530247,2.865950259499077e-05
-15197.799668087097,2.88065225462897e-05
-15168.567669643948,2.8948067684002132e-05
-15139.335671200797,2.9085298688502676e-05
-15110.103672757648,2.921897748108771e-05
-15080.871674314498,2.9358201807542986e-05
-15051.639675871349,2.94957739415428e-05
-15022.407677428198,2.9630325485978965e-05
-14993.17567898505,2.9757512450173533e-05
-14963.943680541899,2.9877176052393426e-05
-14934.71168209875,2.999981215415774e-05
-14905.4796836556,3.012308708375643e-05
-14876.247685212451,3.024473792341411e-05
-14847.0156867693,3.036936546307158e-05
-14817.783688326152,3.0487418201376047e-05
-14788.551689883001,3.060303938464741e-05
-14759.319691439852,3.072375664591652e-05
-14730.087692996702,3.084866248565577e-05
-14700.855694553553,3.097129095128465e-05
-14671.623696110404,3.1090832024092556e-05
-14642.391697667254,3.1214484926199344e-05
-14613.159699224105,3.1337203194349464e-05
-14583.927700780954,3.145838134877181e-05
-14554.695702337805,3.1578083017300785e-05
-14525.463703894655,3.169206390284831e-05
-14496.231705451506,3.179885920788997e-05
-14466.999707008355,3.190125146673367e-05
-14437.767708565207,3.2002473539151525e-05
-14408.535710122056,3.2099817602211884e-05
-14379.303711678907,3.21998617674249e-05
-14350.071713235757,3.229900889024948e-05
-14320.839714792608,3.239776057115261e-05
-14291.607716349457,3.249692527191095e-05
-14262.375717906309,3.2590676989520796e-05
-14233.143719463158,3.268185818743629e-05
-14203.91172102001,3.277578993419076e-05
-14174.679722576859,3.286532607228184e-05
-14145.44772413371,3.295939586477617e-05
-14116.21572569056,3.305218941188924e-05
-14086.98372724741,3.313971455715404e-05
-14057.75172880426,3.321822171047429e-05
-14028.519730361111,3.329076103245855e-05
-13999.287731917962,3.336170630083746e-05
-13970.055733474812,3.344450953782882e-05
-13940.823735031663,3.35266466204567e-05
-13911.591736588513,3.3602765981291925e-05
-13882.359738145364,3.367148895484663e-05
-13853.127739702213,3.373487791024173e-05
-13823.895741259064,3.379425943827769e-05
-13794.663742815914,3.3860831928404344e-05
-13765.431744372765,3.3920190602674235e-05
-13736.199745929614,3.397588505095165e-05
-13706.967747486466,3.4024205021788614e-05
-13677.735749043315,3.407102333928691e-05
-13648.503750600166,3.4119858078887496e-05
-13619.271752157016,3.417114324710919e-05
-13590.039753713867,3.421678388910886e-05
-13560.807755270716,3.426313669143858e-05
-13531.575756827568,3.4303089210888886e-05
-13502.343758384417,3.433763775951468e-05
-13473.111759941268,3.43794772554123e-05
-13443.879761498118,3.441646297088989e-05
-13414.647763054969,3.445602172021241e-05
-13385.415764611818,3.4496824866562244e-05
-13356.18376616867,3.45367142079075e-05
-13326.95176772552,3.456589840707887e-05
-13297.71976928237,3.459799969655648e-05
-13268.487770839221,3.462818675696861e-05
-13239.25577239607,3.464788871434633e-05
-13210.023773952922,3.4660506852790326e-05
-13180.791775509771,3.467347992273467e-05
-13151.559777066623,3.467669190934974e-05
-13122.327778623472,3.46786220069826e-05
-13093.095780180323,3.467827961831851e-05
-13063.863781737173,3.466812802168759e-05
-13034.631783294024,3.465570053626579e-05
-13005.399784850873,3.4637954324211e-05
-12976.167786407725,3.461598878543963e-05
-12946.935787964574,3.459819504896413e-05
-12917.703789521425,3.458079855685371e-05
-12888.471791078275,3.455946467321944e-05
-12859.239792635126,3.455003439714511e-05
-12830.007794191975,3.454637671944532e-05
-12800.775795748827,3.453867378698441e-05
-12771.543797305676,3.453247286777983e-05
-12742.311798862527,3.452445453912651e-05
-12713.079800419377,3.451315452351945e-05
-12683.847801976228,3.450426057959231e-05
-12654.615803533077,3.4499735119647056e-05
-12625.383805089929,3.448830792430026e-05
-12596.15180664678,3.447859720008792e-05
-12566.91980820363,3.4473286652178285e-05
-12537.68780976048,3.4473941501401906e-05
-12508.45581131733,3.4470521091570325e-05
-12479.223812874181,3.446590169803103e-05
-12449.99181443103,3.446093058658016e-05
-12420.759815987882,3.4454653154487465e-05
-12391.527817544731,3.4450842463108346e-05
-12362.295819101582,3.443775316647074e-05
-12333.063820658432,3.4425159725374166e-05
-12303.831822215283,3.441325696215622e-05
-12274.599823772132,3.440017296087232e-05
-12245.367825328984,3.438626500287115e-05
-12216.135826885833,3.43656353840952e-05
-12186.903828442684,3.4348435316034654e-05
-12157.671829999534,3.4338827806252435e-05
-12128.439831556385,3.432427522791808e-05
-12099.207833113234,3.431746963723473e-05
-12069.975834670086,3.431126892067354e-05
-12040.743836226935,3.4296861889556664e-05
-12011.511837783786,3.427827177104229e-05
-11982.279839340636,3.425875920127325e-05
-11953.047840897487,3.424187760169943e-05
-11923.815842454338,3.423122477334837e-05
-11894.583844011187,3.422887274326253e-05
-11865.351845568039,3.422715367984888e-05
-11836.119847124888,3.422633227262093e-05
-11806.88784868174,3.422700883848517e-05
-11777.655850238589,3.423661609378232e-05
-11748.42385179544,3.42466517965789e-05
-11719.19185335229,3.425147064984485e-05
