grid,density
-49643.34695098082,5.087331628617954e-09
-49603.38373718808,7.2751282598409505e-09
-49563.42052339535,9.436486261079e-09
-49523.45730960261,1.1571405632332864e-08
-49483.49409580987,1.3679886373602158e-08
-49443.530882017134,1.5761928484886505e-08
-49403.567668224394,1.7817531966186667e-08
-49363.60445443166,1.9846696817501893e-08
-49323.64124063892,2.1849423038832922e-08
-49283.67802684618,2.382571063017938e-08
-49243.71481305345,2.577555959154091e-08
-49203.75159926071,2.7698969922918237e-08
-49163.78838546797,2.9595941624310984e-08
-49123.825171675235,3.146647469571884e-08
-49083.861957882495,3.331056913714245e-08
-49043.89874408976,3.512822494858117e-08
-49003.93553029702,3.691944213003565e-08
-48963.97231650428,3.8684220681505565e-08
-48924.00910271155,4.0422560602990595e-08
-48884.04588891881,4.2134461894491366e-08
-48844.08267512607,4.3819924556007574e-08
-48804.119461333335,4.547894858753892e-08
-48764.156247540595,4.7111533989086e-08
-48724.193033747855,4.87176807606485e-08
-48684.22981995512,5.07213113297478e-08
-48644.26660616238,5.4517699155375785e-08
-48604.30339236965,5.826120972103399e-08
-48564.34017857691,6.195184302672371e-08
-48524.37696478417,6.55895990724443e-08
-48484.413750991436,6.91744778581951e-08
-48444.450537198696,7.270647938397743e-08
-48404.487323405956,7.618560364979063e-08
-48364.52410961322,7.961185065563404e-08
-48324.56089582048,8.298522040150896e-08
-48284.59768202775,8.630571288741412e-08
-48244.63446823501,9.107417595645065e-08
-48204.67125444227,9.651937788075031e-08
-48164.70804064954,1.0188526391509526e-07
-48124.7448268568,1.0717183405948758e-07
-48084.78161306406,1.1237908831392612e-07
-48044.818399271324,1.1750702667841004e-07
-48004.855185478584,1.225556491529412e-07
-47964.89197168584,1.2871317226723327e-07
-47924.92875789311,1.3725033866343149e-07
-47884.96554410037,1.4650021821314847e-07
-47845.00233030764,1.5561790461294092e-07
-47805.0391165149,1.646033978628123e-07
-47765.07590272216,1.7345669796276073e-07
-47725.112688929425,1.821778049127848e-07
-47685.149475136684,1.9076671871288756e-07
-47645.186261343944,1.9922343936306745e-07
-47605.22304755121,2.0754796686332312e-07
-47565.25983375847,2.1633056939981107e-07
-47525.29661996574,2.2663187891565894e-07
-47485.333406173,2.3677455665160146e-07
-47445.37019238026,2.4675860260763643e-07
-47405.406978587525,2.5658401678376223e-07
-47365.443764794785,2.662507991799824e-07
-47325.480551002045,2.757589497962952e-07
-47285.51733720931,2.851084686326989e-07
-47245.55412341657,2.9429935568919685e-07
-47205.59090962383,3.034917244480579e-07
-47165.6276958311,3.1461155532480533e-07
-47125.66448203836,3.2554631579166275e-07
-47085.701268245626,3.362960058486262e-07
-47045.738054452886,3.4686062549569974e-07
-47005.774840660146,3.59314261346922e-07
-46965.81162686741,3.7173243912671815e-07
-46925.84841307467,3.8393910786664e-07
-46885.88519928193,3.9593426756668526e-07
-46845.9219854892,4.0771791822685196e-07
-46805.95877169646,4.1929005984714417e-07
-46765.99555790372,4.306506924275599e-07
-46726.03234411099,4.4179981596809695e-07
-46686.06913031825,4.527374304687596e-07
-46646.105916525514,4.6346353592954365e-07
-46606.14270273277,4.7523117053114975e-07
-46566.17948894003,4.87767640058718e-07
-46526.2162751473,5.000661619164229e-07
-46486.25306135456,5.12223611773267e-07
-46446.28984756182,5.262931855260156e-07
-46406.32663376909,5.400983729789157e-07
-46366.36341997635,5.550073297839849e-07
-46326.400206183615,5.705157716406437e-07
-46286.436992390874,5.857333885674752e-07
-46246.473778598134,6.017302776014922e-07
-46206.5105648054,6.186017786868172e-07
-46166.54735101266,6.364204506934139e-07
-46126.58413721992,6.548906726868164e-07
-46086.62092342719,6.730171924904157e-07
-46046.65770963445,6.920492925527852e-07
-46006.694495841715,7.117218343213853e-07
-45966.731282048975,7.310242352702047e-07
-45926.768068256235,7.499564953992402e-07
-45886.8048544635,7.685186147084885e-07
-45846.84164067076,7.867105931979561e-07
-45806.87842687802,8.045324308676399e-07
-45766.91521308529,8.219841277175364e-07
-45726.95199929255,8.40859232046864e-07
-45686.98878549981,8.597976595000753e-07
-45647.025571707076,8.78339507503515e-07
-45607.062357914336,8.964847760571892e-07
-45567.0991441216,9.14233465161092e-07
-45527.13593032886,9.319026519740729e-07
-45487.17271653612,9.521503986023165e-07
-45447.20950274339,9.731630762558642e-07
-45407.24628895065,9.937262971996775e-07
-45367.28307515791,1.0138400614337536e-06
-45327.31986136518,1.0335043689580884e-06
-45287.35664757244,1.0536911700902987e-06
-45247.393433779696,1.076143369378491e-06
-45207.43021998696,1.1007690893328493e-06
-45167.46700619422,1.128111128387266e-06
-45127.50379240149,1.1581056660612737e-06
-45087.54057860875,1.190056949578336e-06
-45047.57736481601,1.2226612613053276e-06
-45007.61415102328,1.256841809053556e-06
-44967.65093723054,1.2917016709770247e-06
-44927.687723437804,1.327104024549162e-06
-44887.724509645064,1.367109284253431e-06
-44847.761295852324,1.4065599109550898e-06
-44807.798082059584,1.4469591526166467e-06
-44767.83486826685,1.4871042738822882e-06
-44727.87165447411,1.5281718271782056e-06
-44687.90844068138,1.5700017723745485e-06
-44647.94522688864,1.6122047605097007e-06
-44607.9820130959,1.6535617124853475e-06
-44568.018799303165,1.69407262830148e-06
-44528.055585510425,1.7337375079581137e-06
-44488.09237171769,1.776335367549522e-06
-44448.12915792495,1.8187599295137884e-06
-44408.16594413221,1.862298214130126e-06
-44368.20273033948,1.9093842192029088e-06
-44328.23951654674,1.95884328898192e-06
-44288.276302754,2.0109218068097713e-06
-44248.313088961266,2.0619665294995135e-06
-44208.349875168526,2.1119537069898824e-06
-44168.386661375785,2.1615507995188984e-06
-44128.42344758305,2.21361385509573e-06
-44088.46023379031,2.2681472916267396e-06
-44048.49701999758,2.3243122132404393e-06
-44008.53380620484,2.380459656193573e-06
-43968.5705924121,2.4386356672762303e-06
-43928.60737861937,2.4999084495741884e-06
-43888.64416482663,2.563103254835293e-06
-43848.680951033886,2.6284277247498638e-06
-43808.71773724115,2.6952097210744123e-06
-43768.75452344841,2.7610687037989086e-06
-43728.79130965567,2.8255264391342206e-06
-43688.82809586294,2.8916378660838058e-06
-43648.8648820702,2.960001476768666e-06
-43608.90166827747,3.027821090805569e-06
-43568.93845448473,3.0959656121507603e-06
-43528.97524069199,3.1671677731267083e-06
-43489.012026899254,3.2440685979665187e-06
-43449.048813106514,3.3214227240917484e-06
-43409.085599313774,3.4044920844338865e-06
-43369.12238552104,3.4904151178397465e-06
-43329.1591717283,3.581430233346137e-06
-43289.19595793556,3.6757270312340264e-06
-43249.23274414283,3.7728762095578177e-06
-43209.26953035009,3.8734777534833055e-06
-43169.306316557355,3.974875270894403e-06
-43129.343102764615,4.076336627418029e-06
-43089.379888971875,4.179839123170923e-06
-43049.41667517914,4.285424146692336e-06
-43009.4534613864,4.393834389962679e-06
-42969.49024759367,4.506361095751935e-06
-42929.52703380093,4.619127041724657e-06
-42889.56382000819,4.7327722694253875e-06
-42849.600606215456,4.852945274405775e-06
-42809.637392422715,4.972617263625074e-06
-42769.674178629975,5.093186284386623e-06
-42729.71096483724,5.213081679133541e-06
-42689.7477510445,5.331753283468187e-06
-42649.78453725176,5.450034737407425e-06
-42609.82132345903,5.56906168055045e-06
-42569.85810966629,5.68934107123318e-06
-42529.89489587356,5.809678745517842e-06
-42489.931682080816,5.935492150804151e-06
-42449.968468288076,6.066887042343738e-06
-42410.00525449534,6.202590741457719e-06
-42370.0420407026,6.3410623798777414e-06
-42330.07882690986,6.477162971760623e-06
-42290.11561311713,6.614811998106986e-06
-42250.15239932439,6.750807819492569e-06
-42210.18918553165,6.8855468818651405e-06
-42170.22597173892,7.018818533717414e-06
-42130.26275794618,7.149727282364241e-06
-42090.299544153444,7.283282412191678e-06
-42050.336330360704,7.414415369234197e-06
-42010.373116567964,7.543613670252942e-06
-41970.40990277523,7.678753176472057e-06
-41930.44668898249,7.813319153455718e-06
-41890.48347518975,7.948158110848986e-06
-41850.52026139702,8.084864595675159e-06
-41810.55704760428,8.226769767281623e-06
-41770.59383381154,8.368157166863722e-06
-41730.630620018805,8.510279471247391e-06
-41690.667406226064,8.652936470946881e-06
-41650.70419243333,8.793723003028763e-06
-41610.74097864059,8.931764195274865e-06
-41570.77776484785,9.067225221281095e-06
-41530.81455105512,9.199675666976644e-06
-41490.85133726238,9.333251413905843e-06
-41450.888123469646,9.47070274633021e-06
-41410.924909676905,9.606590945006297e-06
-41370.961695884165,9.743749539771878e-06
-41330.998482091425,9.88480889970589e-06
-41291.03526829869,1.0024239734714633e-05
-41251.07205450595,1.0159552598419264e-05
-41211.10884071322,1.0292532543245629e-05
-41171.14562692048,1.0430819366769175e-05
-41131.18241312774,1.0571562094298003e-05
-41091.219199335006,1.07115831379209e-05
-41051.255985542266,1.0853554459980408e-05
-41011.29277174953,1.099915663247107e-05
-40971.32955795679,1.115313079083467e-05
-40931.36634416405,1.1310463012144779e-05
-40891.40313037132,1.1473767896259471e-05
-40851.43991657858,1.1634829270856202e-05
-40811.47670278584,1.1792090539863782e-05
-40771.51348899311,1.1946185470513043e-05
-40731.55027520037,1.2097765770147921e-05
-40691.58706140763,1.225089468958976e-05
-40651.623847614894,1.2403324802951939e-05
-40611.66063382215,1.2557678803580789e-05
-40571.69742002942,1.2712439580776069e-05
-40531.73420623668,1.2872633936415977e-05
-40491.77099244394,1.3036782545086577e-05
-40451.80777865121,1.3214514513088016e-05
-40411.84456485847,1.3392801126350815e-05
-40371.881351065735,1.3571350186999423e-05
-40331.918137272994,1.3756126706650031e-05
-40291.954923480254,1.3940510116738591e-05
-40251.991709687514,1.4124893069703409e-05
-40212.02849589478,1.4308000752020692e-05
-40172.06528210204,1.4490276735390984e-05
-40132.10206830931,1.4668947351695342e-05
-40092.13885451657,1.4842125407468541e-05
-40052.17564072383,1.501213315828957e-05
-40012.212426931095,1.5180022959427721e-05
-39972.249213138355,1.5345560232020893e-05
-39932.28599934562,1.5519042312358236e-05
-39892.32278555288,1.5694195440402966e-05
-39852.35957176014,1.5869398747874902e-05
-39812.3963579674,1.6042521113892062e-05
-39772.43314417467,1.621503213412527e-05
-39732.46993038193,1.638420424315813e-05
-39692.506716589196,1.6551281378430584e-05
-39652.543502796456,1.6713963290660703e-05
-39612.580289003716,1.688074868695277e-05
-39572.61707521098,1.7045728585828063e-05
-39532.65386141824,1.721790121200398e-05
-39492.69064762551,1.739089926208744e-05
-39452.72743383277,1.756049473563452e-05
-39412.76422004003,1.773295799110652e-05
-39372.80100624729,1.7908377032780222e-05
-39332.83779245456,1.808625627449586e-05
-39292.87457866182,1.8265184054354852e-05
-39252.91136486908,1.84417468144314e-05
-39212.94815107634,1.8619144793356998e-05
-39172.9849372836,1.8798903390623056e-05
-39133.02172349087,1.8977309660559342e-05
-39093.05850969813,1.9152165635902586e-05
-39053.0952959054,1.932723010017974e-05
-39013.13208211266,1.949927825667033e-05
-38973.16886831992,1.967027901108797e-05
-38933.205654527184,1.9852479432449123e-05
-38893.242440734444,2.0042538248957126e-05
-38853.27922694171,2.0232935199481175e-05
-38813.31601314897,2.0423664103314815e-05
-38773.35279935623,2.0614961219601716e-05
-38733.38958556349,2.081133701197621e-05
-38693.42637177076,2.1004409575702473e-05
-38653.46315797802,2.119870384567786e-05
-38613.499944185285,2.1391809645873914e-05
-38573.536730392545,2.1581704493258874e-05
-38533.573516599805,2.1766852568697645e-05
-38493.61030280707,2.1948861766830924e-05
-38453.64708901433,2.2130440953626704e-05
-38413.6838752216,2.2314952380875352e-05
-38373.72066142886,2.250073783672739e-05
-38333.75744763612,2.268680426488681e-05
-38293.79423384338,2.2873569604009002e-05
-38253.831020050646,2.305864549383128e-05
-38213.867806257906,2.3241989883132423e-05
-38173.90459246517,2.342382733019466e-05
-38133.94137867243,2.3602463591266086e-05
-38093.97816487969,2.378366421090517e-05
-38054.01495108696,2.396966063138171e-05
-38014.05173729422,2.415118300753068e-05
-37974.08852350149,2.4336903561427954e-05
-37934.12530970875,2.4523130837460063e-05
-37894.16209591601,2.4711196433374884e-05
-37854.198882123266,2.489889123114524e-05
-37814.23566833053,2.508744969865143e-05
-37774.27245453779,2.527412087419462e-05
-37734.30924074506,2.545698734932811e-05
-37694.34602695232,2.5638611577712176e-05
-37654.38281315958,2.58192449146165e-05
-37614.41959936685,2.6005857417638722e-05
-37574.45638557411,2.619979235513321e-05
-37534.493171781374,2.640275108062152e-05
-37494.529957988634,2.66107434185288e-05
-37454.566744195894,2.6820004169104034e-05
-37414.60353040316,2.702174798010226e-05
-37374.64031661042,2.7212242985935815e-05
-37334.67710281769,2.7393140038012873e-05
-37294.71388902495,2.7571848417814807e-05
-37254.75067523221,2.774913407406849e-05
-37214.78746143947,2.7922234925118904e-05
-37174.824247646735,2.808539399289532e-05
-37134.861033853995,2.824076057918336e-05
-37094.89782006126,2.8398328082800647e-05
-37054.93460626852,2.855448402864911e-05
-37014.97139247578,2.8710788574470627e-05
-36975.00817868305,2.8863129303173313e-05
-36935.04496489031,2.9013968865494047e-05
-36895.081751097576,2.9168588094234314e-05
-36855.118537304836,2.932054325787499e-05
-36815.155323512095,2.9469588501185113e-05
-36775.192109719355,2.961842254202006e-05
-36735.22889592662,2.9776862300137054e-05
-36695.26568213388,2.9938964645565087e-05
-36655.30246834115,3.010478858219495e-05
-36615.33925454841,3.0269194018051683e-05
-36575.37604075567,3.0437979460164504e-05
-36535.41282696294,3.060541439886613e-05
-36495.449613170196,3.077859206795799e-05
-36455.48639937746,3.0952816124090804e-05
-36415.52318558472,3.113276283648873e-05
-36375.55997179198,3.131619672811151e-05
-36335.59675799924,3.15018624410821e-05
-36295.63354420651,3.168177438211552e-05
-36255.67033041377,3.18609385919739e-05
-36215.70711662104,3.204005202748131e-05
-36175.7439028283,3.2217700707212915e-05
-36135.78068903556,3.23990294335828e-05
-36095.817475242824,3.258377408368257e-05
-36055.854261450084,3.276644837489069e-05
-36015.89104765735,3.295169142733009e-05
-35975.92783386461,3.3135210193364776e-05
-35935.96462007187,3.331511638830806e-05
-35896.00140627914,3.349502823788909e-05
-35856.0381924864,3.367227927720307e-05
-35816.074978693665,3.384353983988117e-05
-35776.111764900925,3.400654822907507e-05
-35736.148551108185,3.416096043654166e-05
-35696.185337315444,3.4305296557250976e-05
-35656.22212352271,3.444743576244039e-05
-35616.25890972997,3.459495145343134e-05
-35576.29569593724,3.474484044169522e-05
-35536.3324821445,3.4896019938276005e-05
-35496.36926835176,3.504635886539835e-05
-35456.406054559026,3.519403751062267e-05
-35416.442840766285,3.53395757190617e-05
-35376.47962697355,3.54828371805431e-05
-35336.51641318081,3.562414652712099e-05
-35296.55319938807,3.576363648818002e-05
-35256.58998559533,3.589614445163886e-05
-35216.6267718026,3.602196084479984e-05
-35176.66355800986,3.614658309737028e-05
-35136.700344217126,3.627505328392629e-05
-35096.737130424386,3.6401593285631946e-05
-35056.773916631646,3.652978672038736e-05
-35016.81070283891,3.6655780926752863e-05
-34976.84748904617,3.677749481966366e-05
-34936.88427525344,3.6893222704387864e-05
-34896.9210614607,3.700318429562257e-05
-34856.95784766796,3.7109734236116134e-05
-34816.99463387522,3.721248473880859e-05
-34777.03142008249,3.731109021180767e-05
-34737.06820628975,3.740763217881551e-05
-34697.104992497014,3.74995367235352e-05
-34657.141778704274,3.7591572406662156e-05
-34617.17856491153,3.7688276500828604e-05
-34577.2153511188,3.7780257645313186e-05
-34537.25213732606,3.787691535108078e-05
-34497.28892353333,3.798973072582146e-05
-34457.32570974059,3.810763207838303e-05
-34417.36249594785,3.8221015010877346e-05
-34377.399282155115,3.832805984136472e-05
-34337.436068362374,3.844328422749304e-05
-34297.47285456964,3.8557168692329e-05
-34257.5096407769,3.8662518852416865e-05
-34217.54642698416,3.876631568577983e-05
-34177.58321319142,3.886911839108731e-05
-34137.61999939869,3.897977960839982e-05
-34097.65678560595,3.908675575604696e-05
-34057.693571813215,3.919722002496132e-05
-34017.730358020475,3.930472043282273e-05
-33977.767144227735,3.940736278769934e-05
-33937.803930435,3.950651290834625e-05
-33897.84071664226,3.960073039380153e-05
-33857.87750284953,3.969157589590647e-05
-33817.91428905679,3.97822726742767e-05
-33777.95107526405,3.98714145125238e-05
-33737.98786147131,3.9958454621949284e-05
-33698.024647678576,4.005456557129649e-05
-33658.061433885836,4.0159925951656285e-05
-33618.0982200931,4.028376540184652e-05
-33578.13500630036,4.0406727989949396e-05
-33538.17179250762,4.0530918079575626e-05
-33498.20857871489,4.0664132065705325e-05
-33458.24536492215,4.079560607882338e-05
-33418.28215112942,4.0927894761083256e-05
-33378.31893733668,4.1057446161678495e-05
-33338.35572354394,4.1188087494676515e-05
-33298.3925097512,4.131802573947604e-05
-33258.42929595846,4.144751504647666e-05
-33218.46608216573,4.157848444365451e-05
-33178.50286837299,4.1709546188154814e-05
-33138.53965458025,4.183944558499464e-05
-33098.57644078751,4.197613158221735e-05
-33058.61322699478,4.21128879587466e-05
-33018.65001320204,4.224246559950728e-05
-32978.686799409305,4.237255721932474e-05
-32938.723585616564,4.250071354278197e-05
-32898.760371823824,4.262127531111349e-05
-32858.797158031084,4.2737091438951863e-05
-32818.83394423835,4.284437362289657e-05
-32778.87073044562,4.294675808065398e-05
-32738.907516652875,4.3039359946750166e-05
-32698.944302860138,4.313728057034499e-05
-32658.9810890674,4.323463315259972e-05
-32619.017875274665,4.332217017495055e-05
-32579.054661481925,4.3408930941269245e-05
-32539.09144768919,4.349637193811137e-05
-32499.128233896452,4.3585480232525035e-05
-32459.165020103716,4.367205610517894e-05
-32419.201806310975,4.375491620927134e-05
-32379.23859251824,4.383912507321803e-05
-32339.275378725502,4.392586923730178e-05
-32299.312164932766,4.401008979173059e-05
-32259.348951140026,4.408620766284717e-05
-32219.38573734729,4.415739530313912e-05
-32179.422523554553,4.4220417530467374e-05
-32139.459309761816,4.427668580636668e-05
-32099.496095969076,4.434364525939792e-05
-32059.53288217634,4.441693723286711e-05
-32019.569668383603,4.448164046902604e-05
-31979.606454590863,4.454499888389643e-05
-31939.643240798126,4.461072610913826e-05
-31899.68002700539,4.467808747152937e-05
-31859.716813212654,4.473993158562597e-05
-31819.753599419913,4.480150682155456e-05
-31779.790385627177,4.486182477946564e-05
-31739.82717183444,4.492090131717969e-05
-31699.863958041704,4.497925123474071e-05
-31659.900744248964,4.50349363716343e-05
-31619.937530456227,4.5091821743274364e-05
-31579.97431666349,4.515455597718766e-05
-31540.011102870754,4.521475489678495e-05
-31500.047889078014,4.527391314235528e-05
-31460.084675285278,4.5329622770313996e-05
-31420.12146149254,4.538202637024878e-05
-31380.158247699805,4.543815147512941e-05
-31340.195033907064,4.549489536654215e-05
-31300.231820114328,4.554353654829256e-05
-31260.26860632159,4.559399391228427e-05
-31220.30539252885,4.564813129764479e-05
-31180.342178736115,4.5699366309503656e-05
-31140.37896494338,4.575762609524115e-05
-31100.415751150642,4.581118742573466e-05
-31060.4525373579,4.586480507800692e-05
-31020.489323565165,4.591259380866749e-05
-30980.52610977243,4.595661497017839e-05
-30940.562895979692,4.599879312998693e-05
-30900.599682186952,4.603800994940175e-05
-30860.636468394216,4.6082167847999514e-05
-30820.67325460148,4.612034389654485e-05
-30780.710040808743,4.61650913563711e-05
-30740.746827016002,4.622738926710017e-05
-30700.783613223266,4.629314815972257e-05
-30660.82039943053,4.636586283936294e-05
-30620.85718563779,4.644049766286737e-05
-30580.893971845053,4.6517016705917135e-05
-30540.930758052316,4.658405413480608e-05
-30500.96754425958,4.664056225855986e-05
