grid,density
-70651.88282454813,1.7438754651951745e-07
-70605.06531562936,1.8939129958544334e-07
-70558.2478067106,2.0507310073148865e-07
-70511.43029779183,2.2059379574198336e-07
-70464.61278887307,2.3595338461691772e-07
-70417.7952799543,2.511518673563013e-07
-70370.97777103554,2.66358918009751e-07
-70324.16026211677,2.8240487163954225e-07
-70277.34275319801,2.982789787247361e-07
-70230.52524427924,3.139812392653423e-07
-70183.70773536048,3.295116532613511e-07
-70136.89022644171,3.45190499537936e-07
-70090.07271752295,3.6156541691194476e-07
-70043.25520860418,3.7890890807618395e-07
-69996.43769968543,3.965597997582768e-07
-69949.62019076665,4.1546897073457214e-07
-69902.8026818479,4.3455243178640197e-07
-69855.98517292913,4.5342108465749705e-07
-69809.16766401037,4.7301214655471513e-07
-69762.3501550916,4.926138295369645e-07
-69715.53264617284,5.12163226851188e-07
-69668.71513725407,5.332460616309972e-07
-69621.89762833531,5.555805197030721e-07
-69575.08011941654,5.797010261451498e-07
-69528.26261049778,6.039302238726706e-07
-69481.44510157901,6.28697693987183e-07
-69434.62759266025,6.53532137038155e-07
-69387.81008374148,6.791228812665187e-07
-69340.99257482273,7.045389852800673e-07
-69294.17506590395,7.297764284980232e-07
-69247.3575569852,7.557611877985575e-07
-69200.54004806642,7.817488548598974e-07
-69153.72253914767,8.082790301917399e-07
-69106.9050302289,8.350252357552943e-07
-69060.08752131014,8.620772960155398e-07
-69013.27001239137,8.895781369694064e-07
-68966.45250347261,9.171283672078379e-07
-68919.63499455384,9.443349043570925e-07
-68872.81748563508,9.724598591112673e-07
-68825.99997671631,1.0021737418115222e-06
-68779.18246779755,1.0329931839236573e-06
-68732.36495887878,1.0638711408194851e-06
-68685.54744996002,1.0960715148650612e-06
-68638.72994104125,1.1324292367941863e-06
-68591.9124321225,1.170353942252874e-06
-68545.09492320372,1.2096156463169075e-06
-68498.27741428497,1.2503393812152418e-06
-68451.4599053662,1.2909590867167394e-06
-68404.64239644744,1.3310739929934836e-06
-68357.82488752867,1.3712975332686415e-06
-68311.00737860991,1.41273969513365e-06
-68264.18986969114,1.4540269742516835e-06
-68217.37236077238,1.4955844139209093e-06
-68170.55485185361,1.5366048331382947e-06
-68123.73734293485,1.5770882319038175e-06
-68076.91983401608,1.6176842728524422e-06
-68030.10232509732,1.6595244898841556e-06
-67983.28481617855,1.7024305835632836e-06
-67936.4673072598,1.7469629198707554e-06
-67889.64979834102,1.7916656856589826e-06
-67842.83228942227,1.835794148640879e-06
-67796.0147805035,1.881890656026268e-06
-67749.19727158474,1.930274212098635e-06
-67702.37976266597,1.978352749227687e-06
-67655.56225374721,2.025776121405465e-06
-67608.74474482844,2.0730433835468227e-06
-67561.92723590968,2.121494330779356e-06
-67515.10972699091,2.169268632242573e-06
-67468.29221807215,2.216980543990919e-06
-67421.47470915338,2.26554755797427e-06
-67374.65720023462,2.3136090435904705e-06
-67327.83969131585,2.3614268928592456e-06
-67281.0221823971,2.4092592022498336e-06
-67234.20467347832,2.458878741827649e-06
-67187.38716455956,2.50890327918562e-06
-67140.5696556408,2.5609605309623615e-06
-67093.75214672204,2.6147623459254267e-06
-67046.93463780326,2.6696639063287083e-06
-67000.1171288845,2.727666745575172e-06
-66953.29961996574,2.7871507363012322e-06
-66906.48211104698,2.8532707425944624e-06
-66859.6646021282,2.9196782481370042e-06
-66812.84709320945,2.986195732176312e-06
-66766.02958429068,3.0518744873977373e-06
-66719.21207537192,3.1184343935602947e-06
-66672.39456645315,3.1845663995956193e-06
-66625.57705753439,3.251882280005496e-06
-66578.75954861562,3.320371397700018e-06
-66531.94203969686,3.3905127798043987e-06
-66485.12453077809,3.4614020452768816e-06
-66438.30702185933,3.5317714778558954e-06
-66391.48951294056,3.601092583205365e-06
-66344.6720040218,3.6725228911772905e-06
-66297.85449510303,3.7431867642862686e-06
-66251.03698618428,3.81275511567345e-06
-66204.2194772655,3.881227945338875e-06
-66157.40196834675,3.948899131306292e-06
-66110.58445942798,4.016349464871882e-06
-66063.76695050922,4.083226832649869e-06
-66016.94944159045,4.15299430723349e-06
-65970.13193267169,4.223311991988372e-06
-65923.31442375292,4.2932611015822524e-06
-65876.49691483416,4.362940026236388e-06
-65829.67940591539,4.433226656796481e-06
-65782.86189699663,4.50438859439672e-06
-65736.04438807786,4.577831963596483e-06
-65689.2268791591,4.6542365776311745e-06
-65642.40937024033,4.733761344584321e-06
-65595.59186132156,4.816915810061845e-06
-65548.7743524028,4.900808617033776e-06
-65501.95684348404,4.985779172847396e-06
-65455.139334565276,5.071614058398327e-06
-65408.32182564651,5.158974078642358e-06
-65361.50431672775,5.246444720969131e-06
-65314.68680780898,5.333223985527641e-06
-65267.86929889022,5.420046678242034e-06
-65221.051789971454,5.508443375015864e-06
-65174.23428105269,5.599530582456354e-06
-65127.416772133925,5.690760847516402e-06
-65080.59926321516,5.782608560607056e-06
-65033.7817542964,5.876877356875401e-06
-64986.96424537763,5.974184950010666e-06
-64940.14673645887,6.072533494357029e-06
-64893.3292275401,6.174947258671029e-06
-64846.51171862134,6.281905641874135e-06
-64799.694209702575,6.3896386336529765e-06
-64752.87670078381,6.4993273771822886e-06
-64706.059191865046,6.61038614392856e-06
-64659.24168294628,6.722185672633845e-06
-64612.42417402752,6.833260196420079e-06
-64565.60666510875,6.943813200017005e-06
-64518.78915618999,7.056563087668416e-06
-64471.971647271224,7.171477790212104e-06
-64425.15413835246,7.287796334485512e-06
-64378.336629433696,7.4061505458206775e-06
-64331.51912051493,7.526550957768512e-06
-64284.70161159617,7.647960012936974e-06
-64237.8841026774,7.771040075710205e-06
-64191.06659375864,7.895844969706588e-06
-64144.249084839874,8.026784575987141e-06
-64097.43157592111,8.159331980942071e-06
-64050.614067002345,8.292320511479314e-06
-64003.79655808358,8.426505604971555e-06
-63956.97904916482,8.560608431583555e-06
-63910.16154024605,8.694798804561112e-06
-63863.34403132729,8.831895827645365e-06
-63816.52652240852,8.969967797379774e-06
-63769.70901348976,9.107675518135042e-06
-63722.891504570995,9.247415369994862e-06
-63676.07399565223,9.386272403045145e-06
-63629.256486733466,9.52747403422907e-06
-63582.4389778147,9.669235903870555e-06
-63535.62146889594,9.810734457834798e-06
-63488.80395997717,9.951654469666733e-06
-63441.98645105841,1.0091593240080795e-05
-63395.168942139644,1.02324624686537e-05
-63348.35143322088,1.0371830966429446e-05
-63301.533924302115,1.0512088208993472e-05
-63254.71641538335,1.0650115399068476e-05
-63207.89890646459,1.0786259407090257e-05
-63161.08139754582,1.0922376390842982e-05
-63114.26388862706,1.1058478245062143e-05
-63067.44637970829,1.119632802564262e-05
-63020.62887078953,1.1337410129495855e-05
-62973.81136187076,1.1478651356961727e-05
-62926.993852952,1.161902406124199e-05
-62880.17634403323,1.175711629820275e-05
-62833.35883511447,1.1894428293776556e-05
-62786.5413261957,1.2035836478220017e-05
-62739.72381727694,1.2182932034844222e-05
-62692.90630835817,1.2328813172975507e-05
-62646.088799439414,1.2476993830008412e-05
-62599.27129052064,1.2629043792123789e-05
-62552.453781601886,1.2783572551157516e-05
-62505.636272683114,1.293959515949295e-05
-62458.81876376436,1.3095941311105904e-05
-62412.001254845585,1.3252920204802314e-05
-62365.18374592683,1.3407632372150892e-05
-62318.36623700806,1.356095058796609e-05
-62271.5487280893,1.3711010671155043e-05
-62224.73121917053,1.3860298723268316e-05
-62177.91371025177,1.4009894299148213e-05
-62131.096201333,1.415885714060782e-05
-62084.27869241424,1.4306790796991461e-05
-62037.46118349547,1.4452815477025531e-05
-61990.643674576706,1.4596470350441951e-05
-61943.82616565794,1.4739067458724585e-05
-61897.00865673918,1.4886500279791783e-05
-61850.19114782041,1.5040145392887762e-05
-61803.37363890165,1.5192695813051182e-05
-61756.556129982884,1.5343947118111195e-05
-61709.73862106412,1.5494941117371795e-05
-61662.921112145355,1.5645963903367375e-05
-61616.10360322659,1.5795236376705438e-05
-61569.28609430783,1.5946668614867142e-05
-61522.46858538906,1.6097390397043765e-05
-61475.6510764703,1.6245886462699914e-05
-61428.83356755153,1.639453446157861e-05
-61382.01605863277,1.654453261073815e-05
-61335.198549714005,1.669421004577983e-05
-61288.38104079524,1.6841931750597738e-05
-61241.563531876476,1.6991799372834717e-05
-61194.74602295771,1.7141734807023494e-05
-61147.92851403895,1.7293795687247334e-05
-61101.11100512018,1.7444186482194467e-05
-61054.29349620142,1.7596077329654828e-05
-61007.475987282654,1.7751140402995836e-05
-60960.65847836389,1.7904397923157763e-05
-60913.840969445126,1.8059559570061654e-05
-60867.02346052636,1.821110275062824e-05
-60820.2059516076,1.8364657365600016e-05
-60773.38844268883,1.8518148166901953e-05
-60726.57093377007,1.866993632922749e-05
-60679.753424851304,1.882283514466062e-05
-60632.93591593254,1.897308186962687e-05
-60586.118407013775,1.912224194504358e-05
-60539.30089809501,1.9270494104713972e-05
-60492.48338917625,1.9415701973526656e-05
-60445.66588025748,1.9563691809585776e-05
-60398.84837133872,1.9713929589665236e-05
-60352.03086241995,1.9866248232996417e-05
-60305.21335350119,2.0019589031084202e-05
-60258.395844582425,2.0172066963692366e-05
-60211.57833566366,2.0321327453417033e-05
-60164.760826744896,2.0469685254207348e-05
-60117.94331782613,2.0619300899062252e-05
-60071.12580890737,2.076790504605621e-05
-60024.3082999886,2.0915279929983137e-05
-59977.49079106984,2.106375641825499e-05
-59930.673282151074,2.1207622949403367e-05
-59883.85577323231,2.135011699970985e-05
-59837.038264313545,2.14900514695381e-05
-59790.22075539478,2.1629836023973522e-05
-59743.40324647602,2.1769816557678883e-05
-59696.58573755725,2.191003418375525e-05
-59649.76822863849,2.2053647247906452e-05
-59602.95071971972,2.2197863677240086e-05
-59556.13321080096,2.2340707204360712e-05
-59509.315701882195,2.2481884871902968e-05
-59462.49819296343,2.261928561751752e-05
-59415.680684044666,2.275350251290455e-05
-59368.8631751259,2.2887661535984703e-05
-59322.04566620714,2.3021431394291473e-05
-59275.22815728837,2.315271078256671e-05
-59228.41064836961,2.3282789057376003e-05
-59181.593139450844,2.341084971183221e-05
-59134.77563053208,2.3535756780523082e-05
-59087.958121613316,2.3658086207580753e-05
-59041.14061269455,2.37781362737638e-05
-58994.32310377579,2.389639172786321e-05
-58947.50559485702,2.4010753512092585e-05
-58900.68808593826,2.412584835564693e-05
-58853.870577019494,2.424246874172668e-05
-58807.05306810073,2.436051984314256e-05
-58760.235559181965,2.4475430454793963e-05
-58713.4180502632,2.4587952329739997e-05
-58666.600541344436,2.469689354444995e-05
-58619.78303242567,2.480631771441836e-05
-58572.96552350691,2.491311336528446e-05
-58526.14801458814,2.5018425313157458e-05
-58479.33050566938,2.512210674731912e-05
-58432.512996750615,2.5223224132307337e-05
-58385.69548783185,2.5327290603489735e-05
-58338.877978913086,2.5431074050524055e-05
-58292.06046999432,2.5537612964975353e-05
-58245.24296107556,2.5643051874129915e-05
-58198.42545215679,2.5744770948754082e-05
-58151.60794323803,2.584578514066169e-05
-58104.790434319264,2.594424068749514e-05
-58057.9729254005,2.6041734681563124e-05
-58011.155416481735,2.6138101307190785e-05
-57964.337907562964,2.623264892617606e-05
-57917.52039864421,2.632682185663626e-05
-57870.702889725435,2.6419334021607566e-05
-57823.88538080668,2.6514301758572744e-05
-57777.067871887906,2.660777887679961e-05
-57730.25036296915,2.6700023560554158e-05
-57683.43285405038,2.6791627542170553e-05
-57636.61534513162,2.688057550039026e-05
-57589.79783621285,2.6966210303353785e-05
-57542.98032729409,2.7050953855693273e-05
-57496.16281837532,2.7137799945588843e-05
-57449.34530945656,2.722048328814394e-05
-57402.52780053779,2.7297697808975885e-05
-57355.710291619034,2.7371031049569744e-05
-57308.89278270026,2.7442485456050988e-05
-57262.075273781506,2.7515752351280593e-05
-57215.257764862734,2.7586385501349955e-05
-57168.44025594398,2.765779607022903e-05
-57121.622747025205,2.7729204125669928e-05
-57074.80523810645,2.779916000077132e-05
-57027.98772918768,2.7866882064957737e-05
-56981.17022026892,2.7932532229368175e-05
-56934.35271135015,2.7995883848068785e-05
-56887.53520243139,2.8060370870634783e-05
-56840.71769351262,2.81235305006649e-05
-56793.90018459386,2.8186119407886235e-05
-56747.08267567509,2.824927631739901e-05
-56700.26516675633,2.8313888302550215e-05
-56653.44765783756,2.8384910135712697e-05
-56606.6301489188,2.8452651882751282e-05
-56559.81264000003,2.851804373843905e-05
-56512.99513108127,2.8578667690557848e-05
-56466.177622162504,2.8637062010445465e-05
-56419.36011324374,2.869244486445124e-05
-56372.542604324975,2.874709813920122e-05
-56325.72509540621,2.8799210819804973e-05
-56278.90758648745,2.8848586349004248e-05
-56232.09007756868,2.8894996180704565e-05
-56185.27256864992,2.893768532862891e-05
-56138.45505973115,2.8974130636607178e-05
-56091.63755081239,2.9009155353404206e-05
-56044.820041893625,2.9045556721204056e-05
-55998.00253297486,2.9078808116146085e-05
-55951.185024056096,2.9108679788183325e-05
-55904.36751513733,2.9134981488789442e-05
-55857.55000621857,2.9157262205401406e-05
-55810.7324972998,2.9174878403972002e-05
-55763.91498838104,2.919208485725904e-05
-55717.097479462274,2.920892545084305e-05
-55670.27997054351,2.9224073864520535e-05
-55623.462461624746,2.9237142998123594e-05
-55576.64495270598,2.9247597111593788e-05
-55529.82744378722,2.9254924423190727e-05
-55483.00993486845,2.9261943159597412e-05
-55436.19242594969,2.9270192354014098e-05
-55389.374917030924,2.9277050966169583e-05
-55342.55740811216,2.9285429795772138e-05
-55295.739899193395,2.9294732244097087e-05
-55248.92239027463,2.9302583273110036e-05
-55202.10488135587,2.9308507477504075e-05
-55155.2873724371,2.9310568843407103e-05
-55108.46986351834,2.9308572407345076e-05
-55061.65235459957,2.9304320927294213e-05
-55014.83484568081,2.9298990491549074e-05
-54968.017336762045,2.929388163123922e-05
-54921.19982784328,2.9286666805712348e-05
-54874.382318924516,2.9276861378102207e-05
-54827.56481000575,2.926349204351373e-05
-54780.74730108699,2.9248561811544753e-05
-54733.92979216822,2.923199815674871e-05
-54687.11228324946,2.9213204453017226e-05
-54640.294774330694,2.9196289647287806e-05
-54593.47726541193,2.918264356522964e-05
-54546.659756493165,2.9166979401018224e-05
-54499.8422475744,2.9148361181993604e-05
-54453.02473865564,2.9128240506392165e-05
-54406.20722973687,2.9105600907149045e-05
-54359.38972081811,2.9078114154345538e-05
-54312.57221189934,2.9047196239928192e-05
-54265.75470298058,2.9015139773183085e-05
-54218.937194061815,2.898324227398924e-05
-54172.11968514305,2.8952108640332424e-05
-54125.302176224286,2.8922489176659617e-05
-54078.48466730552,2.8891617761681523e-05
-54031.66715838676,2.8858266502659737e-05
-53984.84964946799,2.882311988039258e-05
-53938.03214054923,2.878623557081422e-05
-53891.214631630464,2.8756506830311468e-05
-53844.3971227117,2.8727644512000445e-05
-53797.579613792936,2.86970947674085e-05
-53750.76210487417,2.866611490368897e-05
-53703.94459595541,2.86310369732257e-05
-53657.12708703664,2.8595852782695164e-05
-53610.30957811788,2.856180383455435e-05
-53563.492069199114,2.8526027800922457e-05
-53516.67456028035,2.8489613923247167e-05
-53469.857051361585,2.8453630745407357e-05
-53423.03954244282,2.8415218743027667e-05
-53376.222033524056,2.8379081483473005e-05
-53329.404524605285,2.834121596606945e-05
-53282.58701568653,2.8303903311302016e-05
-53235.769506767756,2.8265112059663833e-05
-53188.951997849,2.82226910547029e-05
-53142.13448893023,2.8178048963130175e-05
-53095.31698001147,2.8130845787660398e-05
-53048.4994710927,2.8083470064962102e-05
-53001.68196217394,2.803286851090326e-05
-52954.86445325517,2.7980154420579032e-05
-52908.04694433641,2.7924663379958586e-05
-52861.22943541764,2.7866297064533197e-05
-52814.411926498884,2.7807726567770988e-05
-52767.59441758011,2.7749079266684326e-05
-52720.776908661355,2.7688542653922753e-05
-52673.95939974258,2.7626824363794834e-05
-52627.14189082383,2.7564533425908583e-05
-52580.324381905055,2.7498257205063186e-05
-52533.5068729863,2.743237237198235e-05
-52486.689364067526,2.7370305179540968e-05
-52439.87185514877,2.7309000811177645e-05
-52393.05434623,2.724649682467064e-05
-52346.23683731124,2.718630007762068e-05
-52299.41932839247,2.7127309686380455e-05
-52252.60181947371,2.7068089280663377e-05
-52205.78431055494,2.701026090977863e-05
-52158.96680163618,2.6951800351399436e-05
-52112.14929271741,2.6893091887756256e-05
-52065.331783798654,2.6831857092316036e-05
-52018.51427487988,2.6766173834146568e-05
-51971.696765961125,2.6696512458618648e-05
-51924.879257042354,2.662587511331463e-05
-51878.0617481236,2.6553290944986864e-05
-51831.244239204825,2.6477665308401206e-05
-51784.42673028607,2.6398330210177585e-05
-51737.6092213673,2.6316225686058224e-05
-51690.79171244854,2.6233308438466866e-05
-51643.97420352977,2.6152203699013592e-05
-51597.15669461101,2.6075339509491898e-05
-51550.33918569224,2.5998576747132563e-05
-51503.52167677348,2.592067683274578e-05
-51456.70416785471,2.5840968014355014e-05
-51409.88665893595,2.5761544450164165e-05
-51363.06915001718,2.5680016342269312e-05
-51316.251641098424,2.559876381343276e-05
-51269.43413217965,2.5515032224992208e-05
-51222.616623260896,2.5428883279934187e-05
-51175.799114342124,2.5342069496956464e-05
-51128.98160542337,2.5256094969265694e-05
-51082.164096504595,2.517047794731325e-05
-51035.34658758584,2.508094625559616e-05
-50988.52907866707,2.4993108809782957e-05
-50941.71156974831,2.4906458304362246e-05
-50894.89406082954,2.4822741341015906e-05
-50848.07655191078,2.4735996902622192e-05
-50801.25904299201,2.465254881589856e-05
-50754.44153407325,2.4572887824949512e-05
-50707.62402515448,2.4490878718621657e-05
-50660.806516235716,2.441035740124744e-05
-50613.98900731695,2.4326927497887928e-05
-50567.17149839819,2.4243994892698622e-05
-50520.35398947942,2.4161800764190455e-05
-50473.53648056066,2.4079283638280534e-05
-50426.718971641894,2.3996740088766376e-05
-50379.90146272313,2.391202248468038e-05
-50333.083953804366,2.3826694770714523e-05
-50286.2664448856,2.3742806217194944e-05
-50239.44893596684,2.365683917920626e-05
-50192.63142704807,2.3572729923423916e-05
-50145.81391812931,2.3489615838994775e-05
-50098.996409210544,2.3409772078135826e-05
-50052.17890029178,2.33317515274951e-05
-50005.361391373015,2.3255278497358242e-05
-49958.54388245425,2.3176849142788493e-05
-49911.726373535486,2.3099093191895187e-05
-49864.90886461672,2.3023846276550735e-05
-49818.09135569796,2.2950650993530338e-05
-49771.27384677919,2.2877346997408652e-05
-49724.45633786043,2.2807148484894902e-05
-49677.638828941665,2.2735353019345725e-05
-49630.8213200229,2.266259783307434e-05
-49584.003811104136,2.2586501717771536e-05
-49537.18630218537,2.25084353663642e-05
-49490.36879326661,2.2432729854612864e-05
-49443.55128434784,2.2357374491644136e-05
-49396.73377542908,2.2286201665542243e-05
-49349.916266510314,2.2217187160524008e-05
-49303.09875759155,2.2146479211990484e-05
-49256.281248672785,2.2077050053727377e-05
-49209.46373975402,2.2009316505909435e-05
-49162.64623083526,2.1937693884801004e-05
-49115.82872191649,2.1865711443763244e-05
-49069.01121299773,2.1792206638042595e-05
-49022.19370407896,2.171751702379257e-05
-48975.3761951602,2.1645195922467855e-05
-48928.558686241435,2.1573131625959774e-05
-48881.74117732267,2.1498396703690266e-05
-48834.923668403906,2.142321622211293e-05
-48788.10615948514,2.134911884269389e-05
-48741.28865056638,2.127557742572158e-05
-48694.47114164761,2.120077949767433e-05
-48647.65363272885,2.1129513182295247e-05
-48600.836123810084,2.1066673243633776e-05
-48554.01861489132,2.1006954454029546e-05
-48507.201105972556,2.094559622913162e-05
-48460.38359705379,2.0884216245378377e-05
-48413.56608813503,2.082217012470789e-05
-48366.74857921626,2.0762032885964645e-05
-48319.9310702975,2.0702131487531203e-05
-48273.113561378734,2.064065317398415e-05
