grid,density
-47598.491654201884,1.1120834876766926e-07
-47563.123717203984,1.217397438436763e-07
-47527.75578020608,1.3215006499935504e-07
-47492.38784320818,1.4243931223470117e-07
-47457.01990621027,1.5260748554971906e-07
-47421.65196921237,1.6265458494440438e-07
-47386.28403221447,1.7258061041875926e-07
-47350.91609521656,1.823855619727858e-07
-47315.54815821866,1.9276600754818632e-07
-47280.180221220755,2.0427861231008716e-07
-47244.812284222855,2.1694714981089093e-07
-47209.444347224955,2.3012085607467155e-07
-47174.07641022705,2.446935850895744e-07
-47138.70847322915,2.594853137820817e-07
-47103.34053623124,2.740954315940963e-07
-47067.97259923334,2.885239385256124e-07
-47032.60466223544,3.0277083457663283e-07
-46997.23672523753,3.1683611974716043e-07
-46961.86878823963,3.307197940371896e-07
-46926.500851241726,3.4442185744672594e-07
-46891.132914243826,3.585896725552137e-07
-46855.764977245926,3.7454178711036123e-07
-46820.39704024802,3.9200945995724165e-07
-46785.02910325012,4.107775394699976e-07
-46749.66116625221,4.2946227224762925e-07
-46714.29322925431,4.497013861632754e-07
-46678.92529225641,4.7135177127309027e-07
-46643.557355258505,4.930059471545161e-07
-46608.189418260605,5.143776172218333e-07
-46572.8214812627,5.354667814750505e-07
-46537.4535442648,5.56273439914159e-07
-46502.0856072669,5.767975925391632e-07
-46466.71767026899,5.970392393500672e-07
-46431.34973327109,6.169983803468628e-07
-46395.98179627318,6.366750155295581e-07
-46360.61385927528,6.560691448981454e-07
-46325.24592227738,6.751807684526277e-07
-46289.877985279476,6.941915108469181e-07
-46254.510048281576,7.146932185137841e-07
-46219.14211128367,7.348922413798283e-07
-46183.77417428577,7.54788579445042e-07
-46148.40623728787,7.785722395613956e-07
-46113.03830028996,8.036909395312574e-07
-46077.67036329206,8.284464177401227e-07
-46042.302426294154,8.533490227398506e-07
-46006.934489296254,8.812867355457264e-07
-45971.566552298355,9.107770274812153e-07
-45936.19861530045,9.398443699546789e-07
-45900.83067830255,9.684879537069802e-07
-45865.46274130464,9.967077787381303e-07
-45830.09480430674,1.024503845048119e-06
-45794.72686730884,1.052487629442422e-06
-45759.35893031093,1.0813868552592408e-06
-45723.99099331303,1.1107548813383189e-06
-45688.62305631513,1.1413585718040004e-06
-45653.255119317226,1.1728037139402305e-06
-45617.887182319326,1.2042250594287232e-06
-45582.51924532142,1.2369172151945982e-06
-45547.15130832352,1.2707957775337923e-06
-45511.78337132561,1.304149686218228e-06
-45476.41543432771,1.3369789412478914e-06
-45441.04749732981,1.3692835426227905e-06
-45405.679560331904,1.4010634903429305e-06
-45370.311623334004,1.4331602856085404e-06
-45334.943686336104,1.4661289856272286e-06
-45299.5757493382,1.5002170868031852e-06
-45264.2078123403,1.5337401763509254e-06
-45228.83987534239,1.5686056825569673e-06
-45193.47193834449,1.6064554853987712e-06
-45158.10400134658,1.6460353413275616e-06
-45122.73606434868,1.684969469681249e-06
-45087.36812735078,1.7232578704598412e-06
-45052.000190352876,1.7616173842853156e-06
-45016.632253354976,1.8005639222240978e-06
-44981.264316357076,1.83930369349956e-06
-44945.89637935917,1.8790596270025395e-06
-44910.52844236127,1.9205694165625886e-06
-44875.16050536336,1.962649090313099e-06
-44839.79256836546,2.004553976451625e-06
-44804.424631367554,2.0499471473619017e-06
-44769.056694369654,2.0956635336453153e-06
-44733.688757371754,2.141866490800121e-06
-44698.32082037385,2.1879527675295476e-06
-44662.95288337595,2.2332318847900955e-06
-44627.58494637805,2.277703842581774e-06
-44592.21700938014,2.3213686409045915e-06
-44556.84907238224,2.3642262797585314e-06
-44521.48113538433,2.410066306216173e-06
-44486.11319838643,2.4586932841692563e-06
-44450.74526138853,2.5090572869306e-06
-44415.377324390625,2.5637989095234554e-06
-44380.009387392725,2.6220535107721866e-06
-44344.64145039482,2.6834460099966646e-06
-44309.27351339692,2.749397429593506e-06
-44273.90557639902,2.8159758625919152e-06
-44238.53763940111,2.8820560665448637e-06
-44203.16970240321,2.948324920874346e-06
-44167.801765405304,3.0184035366830333e-06
-44132.433828407404,3.0922329205700907e-06
-44097.065891409504,3.1684305158901205e-06
-44061.6979544116,3.244822079017746e-06
-44026.3300174137,3.3205480037548863e-06
-43990.96208041579,3.395535893789237e-06
-43955.59414341789,3.476057309281471e-06
-43920.22620641999,3.5598794050803785e-06
-43884.85826942208,3.6502293049354448e-06
-43849.49033242418,3.742466353393925e-06
-43814.122395426275,3.833149619874856e-06
-43778.754458428375,3.923375877942157e-06
-43743.386521430475,4.012897256668179e-06
-43708.01858443257,4.100844674429918e-06
-43672.65064743467,4.187909086131585e-06
-43637.28271043676,4.275321015311376e-06
-43601.91477343886,4.365096266359586e-06
-43566.54683644096,4.455761149503365e-06
-43531.17889944305,4.547308470456426e-06
-43495.81096244515,4.6372376942868545e-06
-43460.443025447246,4.726712268599373e-06
-43425.07508844935,4.8169044749797566e-06
-43389.70715145145,4.906723246722872e-06
-43354.33921445354,4.997493632808016e-06
-43318.97127745564,5.0921365352442335e-06
-43283.60334045773,5.194533872889619e-06
-43248.23540345983,5.300383992210673e-06
-43212.86746646193,5.410728339014425e-06
-43177.499529464025,5.526952239976938e-06
-43142.131592466125,5.6466442629861625e-06
-43106.76365546822,5.773387844139684e-06
-43071.39571847032,5.9030508039450175e-06
-43036.02778147242,6.036049524826465e-06
-43000.65984447451,6.166646946288059e-06
-42965.29190747661,6.296414510740533e-06
-42929.9239704787,6.429371852698009e-06
-42894.5560334808,6.562460039956412e-06
-42859.1880964829,6.693046032861318e-06
-42823.820159484996,6.824485271844677e-06
-42788.452222487096,6.962975141763417e-06
-42753.08428548919,7.0999560883611526e-06
-42717.71634849129,7.23683341072559e-06
-42682.34841149339,7.3747288375535515e-06
-42646.98047449548,7.515048578373191e-06
-42611.61253749758,7.653136589512253e-06
-42576.244600499675,7.791381783958823e-06
-42540.876663501775,7.930291880165406e-06
-42505.508726503875,8.06726887341203e-06
-42470.14078950597,8.201995077144391e-06
-42434.77285250807,8.337189409070759e-06
-42399.40491551016,8.47216526490499e-06
-42364.03697851226,8.605474869517531e-06
-42328.66904151436,8.736783441629305e-06
-42293.30110451645,8.86903132258261e-06
-42257.93316751855,9.000603736427703e-06
-42222.565230520646,9.134632838333233e-06
-42187.197293522746,9.269887689332045e-06
-42151.829356524846,9.408435082209738e-06
-42116.46141952694,9.550115580945305e-06
-42081.09348252904,9.694940223986068e-06
-42045.72554553114,9.839706288981382e-06
-42010.35760853323,9.982404064174742e-06
-41974.98967153533,1.01244368152997e-05
-41939.621734537424,1.0269394946796361e-05
-41904.253797539524,1.0412425555329327e-05
-41868.88586054162,1.0553776330673583e-05
-41833.51792354372,1.0694827620340495e-05
-41798.14998654582,1.0835606798009507e-05
-41762.78204954791,1.0974466431046275e-05
-41727.41411255001,1.111368166812861e-05
-41692.04617555211,1.1253180757527428e-05
-41656.6782385542,1.1394561297035396e-05
-41621.3103015563,1.1532656135749886e-05
-41585.942364558396,1.1672266218687146e-05
-41550.574427560496,1.1813970524701624e-05
-41515.20649056259,1.1953191627328472e-05
-41479.83855356469,1.2092069557325103e-05
-41444.47061656679,1.2231473588216873e-05
-41409.10267956888,1.2373586831828746e-05
-41373.73474257098,1.251995817274112e-05
-41338.36680557308,1.2662430929294854e-05
-41302.998868575174,1.2802966298551197e-05
-41267.630931577274,1.2942976618055002e-05
-41232.26299457937,1.307938154669784e-05
-41196.89505758147,1.3214464108300255e-05
-41161.52712058356,1.3349415983724033e-05
-41126.15918358566,1.348334513205607e-05
-41090.79124658776,1.361976287461338e-05
-41055.42330958985,1.3756308563195433e-05
-41020.05537259195,1.3893039759616258e-05
-40984.68743559405,1.4033440412986964e-05
-40949.319498596145,1.4176587247978123e-05
-40913.951561598245,1.4318513059880944e-05
-40878.58362460034,1.4461084051076286e-05
-40843.21568760244,1.4605495074238009e-05
-40807.84775060453,1.4747869230121583e-05
-40772.47981360663,1.4890135193344983e-05
-40737.11187660873,1.5032752835660754e-05
-40701.743939610824,1.5175772383633812e-05
-40666.376002612924,1.5318960186917895e-05
-40631.008065615024,1.546355259703381e-05
-40595.64012861712,1.5606015827839693e-05
-40560.27219161922,1.574972682428165e-05
-40524.90425462131,1.5896866548166026e-05
-40489.53631762341,1.6047878679462782e-05
-40454.1683806255,1.6208554259281397e-05
-40418.8004436276,1.6372993843238858e-05
-40383.4325066297,1.653663186646726e-05
-40348.064569631795,1.670066236613525e-05
-40312.696632633895,1.6867523306188658e-05
-40277.328695635995,1.7036714379572415e-05
-40241.96075863809,1.7202271179823638e-05
-40206.59282164019,1.736489460597809e-05
-40171.22488464228,1.7533839409319285e-05
-40135.85694764438,1.7707315831919826e-05
-40100.48901064647,1.7882920211329864e-05
-40065.121073648574,1.8058539085499553e-05
-40029.753136650674,1.8236016169798623e-05
-39994.38519965277,1.8419859127589316e-05
-39959.01726265487,1.8609140678821132e-05
-39923.64932565697,1.8797174882606236e-05
-39888.28138865906,1.8987869646727036e-05
-39852.91345166116,1.917684190453694e-05
-39817.54551466325,1.9368305388073148e-05
-39782.17757766535,1.956234997227113e-05
-39746.809640667445,1.9756193895240245e-05
-39711.441703669545,1.9947135911855193e-05
-39676.073766671645,2.0132982368937305e-05
-39640.70582967374,2.0315844859379357e-05
-39605.33789267584,2.0498947159785044e-05
-39569.96995567794,2.0680613779508743e-05
-39534.60201868003,2.0863452870381275e-05
-39499.23408168213,2.1045831394058805e-05
-39463.86614468422,2.1229430980696345e-05
-39428.49820768632,2.1412116780591823e-05
-39393.130270688416,2.159238560281884e-05
-39357.762333690516,2.1774623172578853e-05
-39322.394396692616,2.1952052517978677e-05
-39287.02645969471,2.2129069901487018e-05
-39251.65852269681,2.231264479699915e-05
-39216.29058569891,2.2496089908862672e-05
-39180.922648701,2.2678587650489416e-05
-39145.5547117031,2.2859130573227102e-05
-39110.1867747052,2.3043207589202727e-05
-39074.818837707295,2.3226877189007904e-05
-39039.45090070939,2.3410808369337622e-05
-39004.08296371149,2.3593169620356503e-05
-38968.71502671359,2.3774217740432238e-05
-38933.34708971568,2.395578664068643e-05
-38897.97915271778,2.413678572716252e-05
-38862.61121571988,2.4319502655257507e-05
-38827.24327872197,2.450213233413526e-05
-38791.87534172407,2.4681663668827607e-05
-38756.50740472617,2.4858594210642166e-05
-38721.139467728266,2.5034113778064394e-05
-38685.77153073036,2.5206942664640623e-05
-38650.40359373246,2.5379278216225972e-05
-38615.03565673456,2.555312749998764e-05
-38579.66771973665,2.572397594443643e-05
-38544.29978273875,2.5891460106511227e-05
-38508.93184574085,2.6060359242615173e-05
-38473.563908742944,2.622849773423588e-05
-38438.195971745045,2.6395858021744235e-05
-38402.828034747145,2.656336726437178e-05
-38367.46009774924,2.6727332508701074e-05
-38332.09216075133,2.688924232350864e-05
-38296.72422375343,2.7052406424025142e-05
-38261.35628675553,2.721505613983837e-05
-38225.98834975762,2.737766895081781e-05
-38190.62041275972,2.7541278567348103e-05
-38155.25247576182,2.7700909819365062e-05
-38119.884538763916,2.786006797202491e-05
-38084.516601766016,2.8019866590426965e-05
-38049.148664768116,2.8177838072188407e-05
-38013.78072777021,2.834018804475861e-05
-37978.4127907723,2.8508218567553937e-05
-37943.0448537744,2.8675328794921176e-05
-37907.6769167765,2.8840214497709855e-05
-37872.308979778594,2.900387139642002e-05
-37836.941042780694,2.9163020689353458e-05
-37801.573105782794,2.9314491514548813e-05
-37766.20516878489,2.9460402550439843e-05
-37730.83723178699,2.9602496149297823e-05
-37695.46929478909,2.9738646053891115e-05
-37660.10135779118,2.9869391608769092e-05
-37624.73342079328,2.9999416077588394e-05
-37589.36548379537,3.0126971570286865e-05
-37553.99754679747,3.025187003368041e-05
-37518.629609799566,3.0382036312068703e-05
-37483.261672801666,3.0511698984811597e-05
-37447.893735803766,3.0639452673319655e-05
-37412.52579880586,3.07688082591136e-05
-37377.15786180796,3.089625885025651e-05
-37341.78992481006,3.102169011770106e-05
-37306.42198781215,3.11434814327728e-05
-37271.05405081425,3.126400209890345e-05
-37235.686113816344,3.138446571489075e-05
-37200.318176818444,3.150310696946504e-05
-37164.95023982054,3.161707880474087e-05
-37129.58230282264,3.1724285883864396e-05
-37094.21436582474,3.1826054449657785e-05
-37058.84642882683,3.19316640598313e-05
-37023.47849182893,3.203756870192743e-05
-36988.11055483103,3.2145309369410404e-05
-36952.74261783312,3.225127755590427e-05
-36917.37468083522,3.235709150295648e-05
-36882.006743837315,3.2459147607659394e-05
-36846.638806839415,3.2554078517748896e-05
-36811.27086984151,3.264516217179729e-05
-36775.90293284361,3.2736194696098185e-05
-36740.53499584571,3.28244658102705e-05
-36705.1670588478,3.291394419213377e-05
-36669.7991218499,3.299972461646834e-05
-36634.431184852,3.308338468588739e-05
-36599.063247854094,3.316287446084875e-05
-36563.695310856194,3.3234479631023666e-05
-36528.32737385829,3.3304505744964115e-05
-36492.95943686039,3.336913350235121e-05
-36457.59149986248,3.3430535686368544e-05
-36422.22356286458,3.3489572158177354e-05
-36386.85562586668,3.355111492045384e-05
-36351.48768886877,3.36100154262355e-05
-36316.11975187087,3.367845045080979e-05
-36280.75181487297,3.375317930814e-05
-36245.383877875065,3.383066462996449e-05
-36210.015940877165,3.391438458511869e-05
-36174.64800387926,3.3994433904938164e-05
-36139.28006688136,3.407470766817964e-05
-36103.91212988345,3.415118709837479e-05
-36068.54419288555,3.4226171881800047e-05
-36033.17625588765,3.4301223042191124e-05
-35997.80831888974,3.4376152212604125e-05
-35962.44038189184,3.444650794672192e-05
-35927.07244489394,3.4517222183999845e-05
-35891.70450789604,3.4597028361802416e-05
-35856.33657089814,3.467573649507304e-05
-35820.96863390023,3.4756555710969114e-05
-35785.60069690233,3.483981157266646e-05
-35750.23275990442,3.492043639967433e-05
-35714.86482290652,3.499747076958418e-05
-35679.49688590862,3.50722981938703e-05
-35644.128948910715,3.5146177914358497e-05
-35608.761011912815,3.5215335626680474e-05
-35573.393074914915,3.528228742721759e-05
-35538.02513791701,3.534903043382092e-05
-35502.65720091911,3.541230967804059e-05
-35467.2892639212,3.547341340949302e-05
-35431.9213269233,3.552949704399722e-05
-35396.55338992539,3.5585215723177344e-05
-35361.18545292749,3.563872312206999e-05
-35325.81751592959,3.569585486724224e-05
-35290.449578931686,3.575497843928558e-05
-35255.081641933786,3.581851697505827e-05
-35219.713704935886,3.5887703237077685e-05
-35184.34576793798,3.596419820671356e-05
-35148.97783094008,3.603811640950431e-05
-35113.60989394217,3.6107676409776374e-05
-35078.24195694427,3.617960265369174e-05
-35042.874019946365,3.625849464342878e-05
-35007.506082948465,3.63461657998672e-05
-34972.138145950565,3.6432574168055826e-05
-34936.77020895266,3.651952817243118e-05
-34901.40227195476,3.660553084075726e-05
-34866.03433495686,3.668975875783997e-05
-34830.66639795895,3.6770288224002094e-05
-34795.29846096105,3.684787931994201e-05
-34759.93052396314,3.6925109740031186e-05
-34724.56258696524,3.699812344667517e-05
-34689.194649967336,3.706984921107112e-05
-34653.826712969436,3.714437914740752e-05
-34618.458775971536,3.7216970914741574e-05
-34583.09083897363,3.72867252166851e-05
-34547.72290197573,3.7352041859703086e-05
-34512.35496497783,3.742136352887566e-05
-34476.98702797992,3.749366393300496e-05
-34441.61909098202,3.756402470705196e-05
-34406.25115398412,3.763292703863385e-05
-34370.883216986214,3.769770910132096e-05
-34335.51527998831,3.775802862082311e-05
-34300.14734299041,3.781557128308713e-05
-34264.77940599251,3.787222600091565e-05
-34229.4114689946,3.7927773364447444e-05
-34194.0435319967,3.798528386765389e-05
-34158.6755949988,3.803658405729571e-05
-34123.30765800089,3.8084527389065406e-05
-34087.93972100299,3.813362790658511e-05
-34052.57178400509,3.8179762743815416e-05
-34017.203847007186,3.822218018156716e-05
-33981.83591000928,3.826257410436517e-05
-33946.46797301138,3.8302520293877637e-05
-33911.10003601348,3.834066300091816e-05
-33875.73209901557,3.837302929329358e-05
-33840.36416201767,3.839988396349561e-05
-33804.99622501977,3.842427142047065e-05
-33769.628288021864,3.8444853537444194e-05
-33734.260351023964,3.8466615952722096e-05
-33698.892414026064,3.8485007791180205e-05
-33663.52447702816,3.850032915988091e-05
-33628.15654003025,3.8522776409615475e-05
-33592.78860303235,3.854694872369763e-05
-33557.42066603445,3.8583978284009546e-05
-33522.05272903654,3.862287559478848e-05
-33486.68479203864,3.8661386908262964e-05
-33451.31685504074,3.870052587913264e-05
-33415.948918042835,3.87416783447781e-05
-33380.580981044935,3.878790374733844e-05
-33345.213044047036,3.882504267349667e-05
-33309.84510704913,3.885413854129422e-05
-33274.47717005123,3.88833209461498e-05
-33239.10923305332,3.891819284135503e-05
-33203.74129605542,3.8956140710184e-05
-33168.373359057514,3.899412525875471e-05
-33133.005422059614,3.903573980088965e-05
-33097.637485061714,3.908251742873258e-05
-33062.26954806381,3.9132376853693167e-05
-33026.90161106591,3.918488484771073e-05
-32991.53367406801,3.923536048516978e-05
-32956.1657370701,3.928202150607168e-05
-32920.7978000722,3.9335818768403746e-05
-32885.42986307429,3.938901854568312e-05
-32850.06192607639,3.9439756452164e-05
-32814.693989078485,3.948469609777363e-05
-32779.326052080585,3.952037342657877e-05
-32743.958115082685,3.955257653982356e-05
-32708.590178084778,3.9586756548765147e-05
-32673.222241086878,3.962659545835425e-05
-32637.854304088974,3.966738904052678e-05
-32602.48636709107,3.9706038101391294e-05
-32567.11843009317,3.975280849013202e-05
-32531.750493095264,3.9800984628927225e-05
-32496.382556097364,3.984879543504699e-05
-32461.01461909946,3.9895160968968315e-05
-32425.646682101557,3.9933559430179026e-05
-32390.278745103657,3.9968306650329574e-05
-32354.91080810575,4.000412134871933e-05
-32319.54287110785,4.0039128139742626e-05
-32284.174934109946,4.007567795275443e-05
-32248.806997112042,4.0113903964888275e-05
-32213.439060114142,4.015398681888482e-05
-32178.071123116235,4.019541732118612e-05
-32142.703186118335,4.024167715571599e-05
-32107.33524912043,4.0289844541608156e-05
-32071.967312122528,4.0335482428618584e-05
-32036.599375124628,4.038214096653666e-05
-32001.23143812672,4.042726052947769e-05
-31965.86350112882,4.047519612545428e-05
-31930.495564130917,4.052740504023077e-05
-31895.127627133013,4.057456263441383e-05
-31859.759690135113,4.0618382172306506e-05
-31824.391753137206,4.0658022536318165e-05
-31789.023816139306,4.069422734662333e-05
-31753.655879141403,4.073233635116966e-05
-31718.2879421435,4.0773153757633976e-05
-31682.9200051456,4.081236468649053e-05
-31647.552068147692,4.085190915819655e-05
-31612.184131149792,4.0898385257566145e-05
-31576.81619415189,4.0944059623805716e-05
-31541.448257153985,4.098838264170274e-05
-31506.080320156085,4.103416187295735e-05
-31470.712383158178,4.1078788395063516e-05
-31435.344446160278,4.1122944082361004e-05
-31399.976509162374,4.116795439520483e-05
-31364.60857216447,4.120994089340975e-05
-31329.24063516657,4.1251662935782335e-05
-31293.872698168663,4.129555632079208e-05
-31258.504761170763,4.1335863691145326e-05
-31223.13682417286,4.1379843855657326e-05
-31187.768887174956,4.1427321718811254e-05
-31152.400950177052,4.147397317517589e-05
-31117.033013179152,4.1524934708153756e-05
-31081.66507618125,4.1577851423551696e-05
-31046.297139183345,4.162833815562162e-05
-31010.92920218544,4.167476216326633e-05
-30975.561265187538,4.1720126599809195e-05
-30940.193328189638,4.176106192718311e-05
-30904.825391191735,4.179723319885991e-05
-30869.45745419383,4.183456547500967e-05
-30834.089517195927,4.1872175940304374e-05
-30798.721580198024,4.19015104419279e-05
-30763.353643200124,4.192652651958619e-05
-30727.98570620222,4.1950371731285446e-05
-30692.617769204317,4.196888049365958e-05
