grid,density
-38828.27863988301,0.0
-38789.017550677265,0.0
-38749.75646147152,0.0
-38710.495372265774,0.0
-38671.23428306003,0.0
-38631.97319385429,0.0
-38592.71210464855,0.0
-38553.451015442806,9.752041660531243e-10
-38514.18992623706,3.814118833670579e-09
-38474.928837031315,6.615556079932847e-09
-38435.66774782557,9.37951590484044e-09
-38396.40665861983,1.210599830839336e-08
-38357.14556941409,1.4795003290591569e-08
-38317.88448020834,1.7446530851435616e-08
-38278.6233910026,2.0060580990924488e-08
-38239.36230179686,2.2637153709058687e-08
-38200.101212591115,2.517624900583821e-08
-38160.84012338537,2.7677866881263023e-08
-38121.57903417963,3.014200733533319e-08
-38082.31794497388,3.256867036804913e-08
-38043.05685576814,3.4957855979409914e-08
-38003.7957665624,3.730956416941602e-08
-37964.534677356656,3.962379493806746e-08
-37925.273588150914,4.1900548285364236e-08
-37886.012498945165,4.413982421130674e-08
-37846.75140973942,4.634162271589413e-08
-37807.49032053368,4.850594379912683e-08
-37768.22923132794,5.063278746100488e-08
-37728.9681421222,5.272215370152825e-08
-37689.70705291645,5.477404252069733e-08
-37650.44596371071,5.678845391851132e-08
-37611.184874504965,5.8765387894970656e-08
-37571.92378529922,6.07048444500753e-08
-37532.66269609348,6.260682358382527e-08
-37493.40160688773,6.447132529622089e-08
-37454.14051768199,6.62983495872615e-08
-37414.87942847625,6.808789645694744e-08
-37375.618339270506,6.983996590527869e-08
-37336.357250064764,7.155455793225526e-08
-37297.096160859015,7.323167253787745e-08
-37257.83507165327,7.487130972214467e-08
-37218.57398244753,7.647346948505721e-08
-37179.31289324179,7.803815182661506e-08
-37140.05180403605,7.956535674681825e-08
-37100.790714830306,8.105508424566672e-08
-37061.52962562456,8.250733432316084e-08
-37022.268536418815,8.392210697929998e-08
-36983.00744721307,8.529940221408443e-08
-36943.74635800733,8.89908333052706e-08
-36904.48526880159,9.311397972165763e-08
-36865.22417959584,9.716217129533608e-08
-36825.9630903901,1.0113540802630438e-07
-36786.702001184356,1.0503368991456336e-07
-36747.440911978614,1.0885701696011294e-07
-36708.17982277287,1.1260538916295322e-07
-36668.91873356712,1.1627880652308478e-07
-36629.65764436138,1.1987726904050629e-07
-36590.39655515564,1.2340077671521844e-07
-36551.1354659499,1.2684932954722127e-07
-36511.874376744156,1.302229275365147e-07
-36472.61328753841,1.3555943474177358e-07
-36433.352198332665,1.416080670397346e-07
-36394.09110912692,1.4754426707363162e-07
-36354.83001992118,1.5336803484346457e-07
-36315.56893071544,1.5907937034923347e-07
-36276.30784150969,1.646782735909394e-07
-36237.04675230395,1.7016474456858022e-07
-36197.785663098206,1.75538783282157e-07
-36158.524573892464,1.8080038973166983e-07
-36119.26348468672,1.8594956391711854e-07
-36080.00239548097,1.9098630583850415e-07
-36040.74130627523,1.9591061549582484e-07
-36001.48021706949,2.0072249288908144e-07
-35962.21912786375,2.05421938018274e-07
-35922.958038658006,2.100089508834026e-07
-35883.696949452264,2.1448353148446708e-07
-35844.435860246514,2.1884567982146835e-07
-35805.17477104077,2.230953958944048e-07
-35765.91368183503,2.2723267970327722e-07
-35726.65259262929,2.3125753124808556e-07
-35687.39150342354,2.351699505288306e-07
-35648.1304142178,2.389699375455109e-07
-35608.869325012056,2.426574922981271e-07
-35569.608235806314,2.480666988830922e-07
-35530.34714660057,2.5435701748854646e-07
-35491.08605739483,2.60497426408582e-07
-35451.82496818908,2.6861735872960626e-07
-35412.56387898334,2.797429712839063e-07
-35373.3027897776,2.938826464881574e-07
-35334.041700571855,3.0776838757662407e-07
-35294.78061136611,3.231393689460105e-07
-35255.519522160364,3.393291932376761e-07
-35216.25843295462,3.552191981585013e-07
-35176.99734374888,3.70809383708489e-07
-35137.73625454314,3.8811466898633947e-07
-35098.4751653374,4.0593046216854163e-07
-35059.21407613165,4.249177948627427e-07
-35019.952986925906,4.472581579858328e-07
-34980.691897720164,4.6967709055204423e-07
-34941.43080851442,4.916837714833542e-07
-34902.16971930868,5.132782007797627e-07
-34862.90863010293,5.344603784412736e-07
-34823.64754089719,5.55230304467879e-07
-34784.38645169145,5.808770466724138e-07
-34745.125362485705,6.064563435786158e-07
-34705.86427327996,6.327257591314211e-07
-34666.60318407422,6.601669057527831e-07
-34627.34209486847,6.870833684751848e-07
-34588.08100566273,7.13475147298616e-07
-34548.81991645699,7.393422422230817e-07
-34509.55882725125,7.664829498077306e-07
-34470.2977380455,7.950998242059637e-07
-34431.036648839756,8.257490658011952e-07
-34391.775559634014,8.579142346910705e-07
-34352.51447042827,8.894422874179163e-07
-34313.25338122253,9.204526327360482e-07
-34273.99229201679,9.535565693965167e-07
-34234.73120281104,9.859859124726068e-07
-34195.4701136053,1.0177406619643064e-06
-34156.209024399555,1.0488208178716224e-06
-34116.94793519381,1.081637594071871e-06
-34077.68684598807,1.1156901246201864e-06
-34038.42575678232,1.1503610451485425e-06
-33999.16466757658,1.186385417773814e-06
-33959.90357837084,1.225233015912863e-06
-33920.6424891651,1.2640080053356608e-06
-33881.381399959355,1.3069001227933441e-06
-33842.12031075361,1.350809901443271e-06
-33802.859221547864,1.396640479656515e-06
-33763.59813234212,1.445301603424203e-06
-33724.33704313638,1.4929508368153142e-06
-33685.07595393064,1.5418940194511188e-06
-33645.81486472489,1.5982494192898043e-06
-33606.55377551915,1.6540981023807998e-06
-33567.292686313405,1.7087849854098006e-06
-33528.03159710766,1.76297182547303e-06
-33488.77050790192,1.8204098007248772e-06
-33449.50941869618,1.8786963339896045e-06
-33410.24832949043,1.941232079376628e-06
-33370.98724028469,2.007481754202594e-06
-33331.72615107895,2.0786312594537436e-06
-33292.465061873205,2.1499668420179816e-06
-33253.203972667456,2.2198033277280462e-06
-33213.942883461714,2.290138334733176e-06
-33174.68179425597,2.3606552106546566e-06
-33135.42070505023,2.434959445346626e-06
-33096.15961584449,2.512864405047257e-06
-33056.898526638746,2.5917841769645487e-06
-33017.637437433,2.6691323557591793e-06
-32978.376348227255,2.744756573171481e-06
-32939.11525902151,2.821470149413962e-06
-32899.85416981577,2.897075444912849e-06
-32860.59308061003,2.978261289811507e-06
-32821.33199140428,3.06143696487479e-06
-32782.07090219854,3.1468204473742927e-06
-32742.809812992797,3.231398313979721e-06
-32703.548723787055,3.315687591462705e-06
-32664.28763458131,3.407142106575566e-06
-32625.026545375567,3.497002680015093e-06
-32585.765456169822,3.58472704043741e-06
-32546.50436696408,3.673520899576634e-06
-32507.243277758338,3.763015683382028e-06
-32467.982188552593,3.852889448826954e-06
-32428.72109934685,3.94099431581107e-06
-32389.460010141105,4.031325123645182e-06
-32350.198920935363,4.130889258693307e-06
-32310.93783172962,4.234599439537282e-06
-32271.67674252388,4.335836110571848e-06
-32232.415653318134,4.4345992717970125e-06
-32193.154564112392,4.531403543028927e-06
-32153.893474906647,4.628064633382752e-06
-32114.632385700905,4.7228016726937946e-06
-32075.371296495163,4.817284790764083e-06
-32036.110207289417,4.909219444182259e-06
-31996.849118083675,4.998605632948309e-06
-31957.58802887793,5.0862644599868356e-06
-31918.326939672188,5.1761772811453845e-06
-31879.065850466446,5.264155653593138e-06
-31839.8047612607,5.3544280919549605e-06
-31800.54367205496,5.442521987798773e-06
-31761.282582849213,5.53739104416803e-06
-31722.02149364347,5.635026947856288e-06
-31682.76040443773,5.733945256242437e-06
-31643.499315231984,5.832390468599968e-06
-31604.238226026242,5.931413954521258e-06
-31564.977136820497,6.030250324798934e-06
-31525.716047614755,6.129203866718651e-06
-31486.454958409013,6.232182420816236e-06
-31447.193869203267,6.338735220638246e-06
-31407.932779997525,6.4434463471811495e-06
-31368.67169079178,6.546235718554881e-06
-31329.410601586038,6.645689599428028e-06
-31290.149512380296,6.741807989800621e-06
-31250.88842317455,6.834590889672649e-06
-31211.62733396881,6.924038299044104e-06
-31172.366244763063,7.010150217915001e-06
-31133.10515555732,7.094004997554153e-06
-31093.84406635158,7.176283497022306e-06
-31054.582977145838,7.255189028568537e-06
-31015.321887940092,7.330721592192858e-06
-30976.06079873435,7.403394099185678e-06
-30936.799709528605,7.476878218587947e-06
-30897.538620322863,7.548012611575164e-06
-30858.27753111712,7.6180979522073996e-06
-30819.016441911375,7.68530758091678e-06
-30779.755352705633,7.749576072531916e-06
-30740.494263499888,7.813544202690421e-06
-30701.233174294146,7.87819835059891e-06
-30661.972085088404,7.94042783123271e-06
-30622.71099588266,8.001721354241216e-06
-30583.449906676917,8.062274293397698e-06
-30544.18881747117,8.122527989835707e-06
-30504.92772826543,8.181957614776704e-06
-30465.666639059687,8.2417148174963e-06
-30426.405549853942,8.301864903967316e-06
-30387.1444606482,8.360191944013063e-06
-30347.883371442455,8.417704764117258e-06
-30308.622282236713,8.47403929306533e-06
-30269.36119303097,8.530701080651049e-06
-30230.10010382523,8.583897763163798e-06
-30190.839014619483,8.638155496038957e-06
-30151.577925413738,8.688865041866016e-06
-30112.316836207996,8.73563945845084e-06
-30073.055747002254,8.781478740607922e-06
-30033.794657796512,8.826046922363105e-06
-29994.533568590767,8.870876985812847e-06
-29955.27247938502,8.915047618407629e-06
-29916.01139017928,8.956628378114598e-06
-29876.750300973537,8.999244715280325e-06
-29837.489211767795,9.040406020861643e-06
-29798.22812256205,9.07890198014294e-06
-29758.967033356304,9.11442449711857e-06
-29719.705944150563,9.14567458805977e-06
-29680.44485494482,9.17265225296653e-06
-29641.18376573908,9.197529619175617e-06
-29601.922676533333,9.221165183353963e-06
-29562.661587327588,9.244514331676553e-06
-29523.400498121846,9.268430541294097e-06
-29484.139408916104,9.288969500726588e-06
-29444.878319710362,9.312444229307258e-06
-29405.617230504617,9.338547808390719e-06
-29366.356141298875,9.367145510818532e-06
-29327.09505209313,9.392340832934053e-06
-29287.833962887387,9.417529135344537e-06
-29248.572873681645,9.444062165232031e-06
-29209.311784475904,9.467630331110693e-06
-29170.050695270158,9.490179848219237e-06
-29130.789606064413,9.51098605972604e-06
-29091.52851685867,9.528581506291146e-06
-29052.26742765293,9.542601460399307e-06
-29013.006338447187,9.556934192303714e-06
-28973.74524924144,9.569503094762699e-06
-28934.484160035696,9.577537229237779e-06
-28895.223070829954,9.581854423094814e-06
-28855.961981624212,9.586511685164506e-06
-28816.70089241847,9.588271591444333e-06
-28777.439803212725,9.595835372053262e-06
-28738.17871400698,9.605574518923531e-06
-28698.917624801237,9.612323557371016e-06
-28659.656535595495,9.622701529792931e-06
-28620.395446389753,9.632450035520736e-06
-28581.134357184008,9.63900110628689e-06
-28541.873267978262,9.64455551354312e-06
-28502.61217877252,9.652507888627566e-06
-28463.35108956678,9.660110697441867e-06
-28424.090000361037,9.669543722383681e-06
-28384.82891115529,9.676780812057519e-06
-28345.567821949546,9.679070882112532e-06
-28306.306732743804,9.679837296186562e-06
-28267.045643538062,9.681895720420496e-06
-28227.78455433232,9.684827259322535e-06
-28188.523465126575,9.687091647254671e-06
-28149.262375920833,9.684221628461223e-06
-28110.001286715087,9.678130494230301e-06
-28070.740197509345,9.668895063784343e-06
-28031.479108303603,9.65700517002951e-06
-27992.21801909786,9.64457776363881e-06
-27952.956929892116,9.633072742814016e-06
-27913.69584068637,9.620361809839572e-06
-27874.43475148063,9.6135266064835e-06
-27835.173662274887,9.607333556035514e-06
-27795.912573069145,9.599845335382659e-06
-27756.6514838634,9.592304897757685e-06
-27717.390394657654,9.583548942498208e-06
-27678.129305451912,9.577665851866337e-06
-27638.86821624617,9.578409055097183e-06
-27599.607127040428,9.579576553613697e-06
-27560.346037834683,9.581752944637503e-06
-27521.084948628937,9.583221220122136e-06
-27481.823859423195,9.588431320384957e-06
-27442.562770217453,9.591836761333437e-06
-27403.30168101171,9.598035473537014e-06
-27364.040591805966,9.605382857511723e-06
-27324.77950260022,9.616184622168962e-06
-27285.51841339448,9.628755872928144e-06
-27246.257324188737,9.645854389058905e-06
-27206.996234982995,9.664108171999325e-06
-27167.73514577725,9.681738407186393e-06
-27128.474056571507,9.701500736859252e-06
-27089.212967365762,9.724971362196157e-06
-27049.95187816002,9.74716214018339e-06
-27010.690788954278,9.771538661634605e-06
-26971.429699748533,9.799396369647567e-06
-26932.16861054279,9.829703796329582e-06
-26892.907521337045,9.866193863624176e-06
-26853.646432131303,9.904528085451036e-06
-26814.38534292556,9.949742049433404e-06
-26775.12425371982,9.99819489688142e-06
-26735.863164514074,1.0044131459636326e-05
-26696.60207530833,1.0088352353922783e-05
-26657.340986102587,1.0139659113591902e-05
-26618.079896896845,1.0192282440275947e-05
-26578.818807691103,1.0246347380884334e-05
-26539.557718485357,1.0303510574435962e-05
-26500.29662927961,1.0355570612154408e-05
-26461.03554007387,1.0406884835959809e-05
-26421.774450868128,1.0453147158006256e-05
-26382.513361662386,1.0503043001575808e-05
-26343.25227245664,1.0566095741703353e-05
-26303.991183250895,1.0635371085727585e-05
-26264.730094045153,1.0706697711454125e-05
-26225.46900483941,1.0779866565661449e-05
-26186.20791563367,1.0852718031104073e-05
-26146.946826427924,1.0934733647470817e-05
-26107.68573722218,1.1022958048357458e-05
-26068.424648016437,1.1113472412591983e-05
-26029.163558810695,1.1199257117842458e-05
-25989.902469604953,1.1287898810358039e-05
-25950.641380399207,1.1380030464069228e-05
-25911.380291193465,1.1472930229636865e-05
-25872.11920198772,1.157060838723016e-05
-25832.858112781978,1.1673299048197163e-05
-25793.597023576236,1.177386380832109e-05
-25754.33593437049,1.1881696580549076e-05
-25715.07484516475,1.1997207349771585e-05
-25675.813755959003,1.2120008312659825e-05
-25636.55266675326,1.2245121225726264e-05
-25597.29157754752,1.2372615092090774e-05
-25558.030488341778,1.2501762382385505e-05
-25518.769399136032,1.263634851191174e-05
-25479.508309930286,1.2777482032105185e-05
-25440.247220724545,1.2926952688458344e-05
-25400.986131518803,1.308311137541971e-05
-25361.72504231306,1.3243448493602149e-05
-25322.463953107315,1.3404086782332027e-05
-25283.20286390157,1.3563992937269468e-05
-25243.941774695828,1.3720480174929124e-05
-25204.680685490086,1.387122544592129e-05
-25165.419596284344,1.4015929337986726e-05
-25126.1585070786,1.4157851879821492e-05
-25086.897417872853,1.4296061776455592e-05
-25047.63632866711,1.4432175491408e-05
-25008.37523946137,1.4561138558858407e-05
-24969.114150255627,1.4689213211819271e-05
-24929.853061049882,1.4815633568841165e-05
-24890.591971844136,1.4938957976650147e-05
-24851.330882638395,1.5063685832321667e-05
-24812.069793432653,1.5193183688721834e-05
-24772.80870422691,1.532280880118196e-05
-24733.547615021165,1.5455683368741294e-05
-24694.286525815423,1.5590797325888962e-05
-24655.025436609678,1.5736499326220707e-05
-24615.764347403936,1.5887146084258923e-05
-24576.503258198194,1.604314300971186e-05
-24537.24216899245,1.6195457551746464e-05
-24497.981079786707,1.6350434358758526e-05
-24458.71999058096,1.6512106266936627e-05
-24419.45890137522,1.6681316014452198e-05
-24380.197812169477,1.6851121776945368e-05
-24340.936722963736,1.7035253875294768e-05
-24301.67563375799,1.7228457041629262e-05
-24262.414544552244,1.7424961805198417e-05
-24223.153455346503,1.762711593298522e-05
-24183.89236614076,1.7835550729062443e-05
-24144.63127693502,1.804418076479652e-05
-24105.370187729273,1.8251244220529323e-05
-24066.109098523528,1.845618208873156e-05
-24026.848009317786,1.8660044038306348e-05
-23987.586920112044,1.8865755562764596e-05
-23948.325830906302,1.9073936349635613e-05
-23909.064741700557,1.9280639449251814e-05
-23869.80365249481,1.9490617896147833e-05
-23830.54256328907,1.9697879621062835e-05
-23791.281474083327,1.9905663272513932e-05
-23752.020384877585,2.0122759677064386e-05
-23712.75929567184,2.033392443862108e-05
-23673.498206466094,2.0539562466424542e-05
-23634.237117260353,2.07452709057441e-05
-23594.97602805461,2.095567295125227e-05
-23555.71493884887,2.1166154802488763e-05
-23516.453849643123,2.1371511631286022e-05
-23477.19276043738,2.1568480367121363e-05
-23437.931671231636,2.176876358872071e-05
-23398.670582025894,2.1978540159609372e-05
-23359.409492820152,2.2193953181197447e-05
-23320.148403614407,2.2401390312856676e-05
-23280.887314408665,2.2612163818738895e-05
-23241.62622520292,2.282921491042283e-05
-23202.365135997177,2.304228907384332e-05
-23163.104046791435,2.326050914064135e-05
-23123.842957585694,2.3476786863067725e-05
-23084.581868379948,2.3690117506832266e-05
-23045.320779174202,2.3904776601310905e-05
-23006.05968996846,2.4123025770973174e-05
-22966.79860076272,2.434980174959586e-05
-22927.537511556977,2.458202932909242e-05
-22888.27642235123,2.4808420008993287e-05
-22849.015333145486,2.503866771210061e-05
-22809.754243939744,2.5262478654178884e-05
-22770.493154734002,2.5487972993362548e-05
-22731.23206552826,2.57156152575202e-05
-22691.970976322515,2.593357081554103e-05
-22652.70988711677,2.614681273024199e-05
-22613.448797911027,2.635992725144808e-05
-22574.187708705285,2.657269822223913e-05
-22534.926619499543,2.6786817657527112e-05
-22495.665530293798,2.7009456498365745e-05
-22456.404441088052,2.7229865538172604e-05
-22417.14335188231,2.7444610857618215e-05
-22377.88226267657,2.7653623440895108e-05
-22338.621173470827,2.786792207032406e-05
-22299.36008426508,2.807862849823753e-05
-22260.09899505934,2.8287443706763262e-05
-22220.837905853594,2.8500122237455914e-05
-22181.576816647852,2.8716765719033384e-05
-22142.31572744211,2.8934346368874796e-05
-22103.054638236365,2.914563714702521e-05
-22063.793549030623,2.9354773869616914e-05
-22024.532459824877,2.9558246831627522e-05
-21985.271370619135,2.9753878855250003e-05
-21946.010281413393,2.9951554314391963e-05
-21906.749192207648,3.0148344785891606e-05
-21867.488103001906,3.0359110456602024e-05
-21828.227013796164,3.05695649930791e-05
-21788.96592459042,3.078971747931275e-05
-21749.704835384677,3.1004789986061576e-05
-21710.44374617893,3.122007522774997e-05
-21671.18265697319,3.1437427227126585e-05
-21631.921567767447,3.1659875496582725e-05
-21592.660478561702,3.1887761066698244e-05
-21553.39938935596,3.211177254290255e-05
-21514.138300150214,3.2336179074435154e-05
-21474.877210944473,3.255875241917486e-05
-21435.61612173873,3.278271385362138e-05
-21396.355032532985,3.300081205379084e-05
-21357.093943327243,3.321797029637663e-05
-21317.8328541215,3.343034769504537e-05
-21278.571764915756,3.363676337971217e-05
-21239.310675710014,3.3849826856509566e-05
-21200.04958650427,3.406439891234279e-05
-21160.788497298527,3.427044029580561e-05
-21121.527408092785,3.4473630070129724e-05
-21082.26631888704,3.4681424683652505e-05
-21043.005229681297,3.489166085021122e-05
-21003.744140475552,3.509432417773672e-05
-20964.48305126981,3.529378809748359e-05
-20925.221962064068,3.549159248981907e-05
-20885.960872858323,3.569755185873413e-05
-20846.69978365258,3.5896330860597684e-05
-20807.438694446835,3.609121388109337e-05
-20768.177605241093,3.6283148409743e-05
-20728.91651603535,3.646614256535088e-05
-20689.655426829606,3.6648723721870395e-05
-20650.394337623864,3.683229914228013e-05
-20611.133248418122,3.70201215503062e-05
-20571.872159212377,3.7197492425886305e-05
-20532.611070006635,3.7369519775505013e-05
-20493.34998080089,3.752681649767514e-05
-20454.088891595147,3.767748019206861e-05
-20414.827802389405,3.7825830776086764e-05
-20375.56671318366,3.797794336638648e-05
-20336.305623977918,3.814259055662244e-05
-20297.044534772172,3.830169978124019e-05
-20257.78344556643,3.846611621869652e-05
-20218.52235636069,3.863297231947043e-05
-20179.261267154943,3.878941417632829e-05
-20140.0001779492,3.894888956281836e-05
-20100.73908874346,3.912874350823296e-05
-20061.477999537714,3.9305789496378873e-05
-20022.216910331972,3.947784561702922e-05
-19982.955821126227,3.965273389930994e-05
