grid,density
-60246.13856401356,9.048840771003652e-08
-60205.60028153365,1.011104161790144e-07
-60165.06199905373,1.1252438378510354e-07
-60124.52371657382,1.238153822731074e-07
-60083.985434093905,1.3498341164302987e-07
-60043.44715161399,1.46693819383148e-07
-60002.90886913407,1.5932693072408457e-07
-59962.37058665416,1.732226633179776e-07
-59921.83230417425,1.8696468451426404e-07
-59881.29402169433,2.0195746401052343e-07
-59840.755739214415,2.1693826296919146e-07
-59800.2174567345,2.317499793904949e-07
-59759.67917425458,2.477270637954432e-07
-59719.140891774674,2.6385672546225416e-07
-59678.60260929476,2.8133199627491797e-07
-59638.06432681484,3.000863674387162e-07
-59597.526044334925,3.1862554264586873e-07
-59556.98776185501,3.3710190115569327e-07
-59516.4494793751,3.567692217920857e-07
-59475.911196895184,3.7620597533207526e-07
-59435.37291441527,3.97400759048652e-07
-59394.83463193535,4.228144345266841e-07
-59354.296349455435,4.5068557121769985e-07
-59313.758066975526,4.783863513919032e-07
-59273.21978449561,5.057643376311428e-07
-59232.681502015694,5.347082741493786e-07
-59192.14321953578,5.645421605833978e-07
-59151.60493705586,5.940225108029277e-07
-59111.06665457595,6.256532412231885e-07
-59070.528372096036,6.581812878631433e-07
-59029.99008961612,6.912192557610084e-07
-58989.4518071362,7.245888434190405e-07
-58948.91352465629,7.607472793580246e-07
-58908.37524217638,7.972205428084082e-07
-58867.83695969646,8.332480432057461e-07
-58827.298677216546,8.70086777763905e-07
-58786.76039473663,9.09899701624753e-07
-58746.22211225671,9.507715108250556e-07
-58705.683829776804,9.911360724132575e-07
-58665.14554729689,1.0327222722117533e-06
-58624.60726481697,1.0759241406763933e-06
-58584.068982337056,1.1209519903159497e-06
-58543.53069985714,1.1671426578360885e-06
-58502.99241737723,1.2152370637658077e-06
-58462.454134897314,1.2649583588185598e-06
-58421.9158524174,1.3168461748495307e-06
-58381.37756993748,1.3681771409614287e-06
-58340.839287457566,1.4188716568817926e-06
-58300.30100497766,1.4714722100497424e-06
-58259.76272249774,1.5264169720582418e-06
-58219.224440017824,1.5821351314877429e-06
-58178.68615753791,1.6406423171349375e-06
-58138.14787505799,1.7029099219063195e-06
-58097.60959257808,1.7648092433649295e-06
-58057.07131009817,1.8264239305617776e-06
-58016.53302761825,1.889954368535595e-06
-57975.994745138334,1.954383489009237e-06
-57935.45646265842,2.0199951771086454e-06
-57894.91818017851,2.088475769643072e-06
-57854.37989769859,2.156144548342772e-06
-57813.84161521868,2.2241810053897815e-06
-57773.30333273876,2.2915525803315593e-06
-57732.765050258844,2.3586081488254566e-06
-57692.226767778935,2.427428457868124e-06
-57651.68848529902,2.496628303571187e-06
-57611.1502028191,2.5658688749337672e-06
-57570.611920339186,2.635033111268219e-06
-57530.07363785927,2.7058371744245147e-06
-57489.53535537936,2.77753915988115e-06
-57448.997072899445,2.850899880120808e-06
-57408.45879041953,2.9233280973366704e-06
-57367.92050793961,2.995226791438666e-06
-57327.382225459696,3.0688942570608824e-06
-57286.84394297979,3.142735833629727e-06
-57246.30566049987,3.2154553169960736e-06
-57205.767378019955,3.28705270715991e-06
-57165.22909554004,3.3575280041212362e-06
-57124.69081306012,3.4268812078800523e-06
-57084.15253058021,3.4951123184363446e-06
-57043.6142481003,3.563477274450361e-06
-57003.07596562038,3.633487770097661e-06
-56962.537683140465,3.704577218484903e-06
-56921.99940066055,3.7781084805480656e-06
-56881.46111818064,3.852884621912022e-06
-56840.92283570072,3.933005186872416e-06
-56800.38455322081,4.0154832934225096e-06
-56759.84627074089,4.100271570910232e-06
-56719.307988260975,4.187550282495289e-06
-56678.769705781066,4.276227681999535e-06
-56638.23142330115,4.370573074984819e-06
-56597.69314082123,4.469184870951417e-06
-56557.15485834132,4.568719440320863e-06
-56516.6165758614,4.669539337767387e-06
-56476.07829338149,4.7718686644276464e-06
-56435.540010901575,4.875675006917568e-06
-56395.00172842166,4.982483413940433e-06
-56354.46344594174,5.0921172618714205e-06
-56313.92516346183,5.203405135090652e-06
-56273.38688098192,5.3128792138181265e-06
-56232.848598502,5.422678571260669e-06
-56192.310316022085,5.5319574261751055e-06
-56151.77203354217,5.641821453389523e-06
-56111.23375106225,5.752955732368619e-06
-56070.695468582344,5.8659253101944344e-06
-56030.15718610243,5.979732985394088e-06
-55989.61890362251,6.09521210897534e-06
-55949.080621142595,6.2117912078767565e-06
-55908.54233866268,6.327960966461323e-06
-55868.00405618277,6.451345916825637e-06
-55827.465773702854,6.574795466854699e-06
-55786.92749122294,6.696734926603322e-06
-55746.38920874302,6.822628866247627e-06
-55705.850926263105,6.949099949710248e-06
-55665.312643783196,7.075909670310203e-06
-55624.77436130328,7.204455890992113e-06
-55584.236078823364,7.33308430872576e-06
-55543.69779634345,7.4619976685207706e-06
-55503.15951386353,7.590824573417398e-06
-55462.62123138362,7.722661646137937e-06
-55422.082948903706,7.854833717409811e-06
-55381.54466642379,7.988199506702292e-06
-55341.00638394387,8.120066056415561e-06
-55300.46810146396,8.25326561835532e-06
-55259.92981898405,8.384868944021924e-06
-55219.39153650413,8.516786092210273e-06
-55178.853254024216,8.648952034851069e-06
-55138.3149715443,8.783823640768607e-06
-55097.77668906438,8.9225277386574e-06
-55057.238406584474,9.065158315127086e-06
-55016.70012410456,9.210962226441251e-06
-54976.16184162464,9.35884249578553e-06
-54935.623559144726,9.504895454041309e-06
-54895.08527666481,9.65274178672809e-06
-54854.5469941849,9.800922357565114e-06
-54814.008711704984,9.947064846882773e-06
-54773.47042922507,1.0092109605256055e-05
-54732.93214674515,1.0237747598495666e-05
-54692.393864265236,1.0384011527671158e-05
-54651.85558178533,1.0531273426179042e-05
-54611.31729930541,1.0677344633601662e-05
-54570.779016825494,1.0823912446142744e-05
-54530.24073434558,1.097176970817499e-05
-54489.70245186566,1.1122826452674181e-05
-54449.16416938575,1.1275380552057092e-05
-54408.62588690584,1.1429545726644408e-05
-54368.08760442592,1.158275106266591e-05
-54327.549321946004,1.173687303203385e-05
-54287.01103946609,1.1889032237128973e-05
-54246.47275698618,1.2038854411135198e-05
-54205.93447450626,1.2191173453002492e-05
-54165.39619202635,1.2344744568487166e-05
-54124.85790954643,1.249945565546282e-05
-54084.319627066514,1.2659410137679566e-05
-54043.781344586605,1.282114027733018e-05
-54003.24306210669,1.2990357240518787e-05
-53962.70477962677,1.3160818581370168e-05
-53922.166497146856,1.3332151216376112e-05
-53881.62821466694,1.3501521635473289e-05
-53841.08993218703,1.3670459851921976e-05
-53800.551649707115,1.3839942370633648e-05
-53760.0133672272,1.4007393069484222e-05
-53719.47508474728,1.4174528169671761e-05
-53678.936802267366,1.4341432461184473e-05
-53638.39851978746,1.4505318816980387e-05
-53597.86023730754,1.46663961656508e-05
-53557.321954827625,1.4830906473717718e-05
-53516.78367234771,1.4992706560465742e-05
-53476.24538986779,1.5153957020463584e-05
-53435.70710738788,1.5314580987360715e-05
-53395.16882490797,1.5478219878472214e-05
-53354.63054242805,1.5642251279653657e-05
-53314.092259948135,1.5803989735945176e-05
-53273.55397746822,1.5968979926184027e-05
-53233.01569498831,1.6134015919716048e-05
-53192.47741250839,1.6297402591356916e-05
-53151.93913002848,1.645846820125763e-05
-53111.40084754856,1.661932022559481e-05
-53070.862565068644,1.6782127485538734e-05
-53030.324282588736,1.6945699869552294e-05
-52989.78600010882,1.7110791391675862e-05
-52949.2477176289,1.7275028583568255e-05
-52908.70943514899,1.743791233715638e-05
-52868.17115266907,1.7603060311900413e-05
-52827.63287018916,1.7771252454990113e-05
-52787.094587709245,1.7942279650696035e-05
-52746.55630522933,1.811674251161853e-05
-52706.01802274941,1.8295897225025416e-05
-52665.4797402695,1.847576993912582e-05
-52624.94145778959,1.865472146767167e-05
-52584.40317530967,1.8833637353042072e-05
-52543.864892829755,1.9014370643413528e-05
-52503.32661034984,1.9197267369401077e-05
-52462.78832786993,1.9383302574314454e-05
-52422.250045390014,1.9572122262622513e-05
-52381.7117629101,1.9762519137618657e-05
-52341.17348043018,1.9951463106311738e-05
-52300.635197950265,2.013791769719876e-05
-52260.09691547035,2.0322492647224657e-05
-52219.55863299044,2.0508675572645705e-05
-52179.020350510524,2.069495763696294e-05
-52138.48206803061,2.088170262040253e-05
-52097.94378555069,2.1068678050280733e-05
-52057.40550307078,2.125600023347641e-05
-52016.867220590866,2.144521009664695e-05
-51976.32893811095,2.163620215629275e-05
-51935.79065563103,2.183109586325866e-05
-51895.25237315112,2.202461447914957e-05
-51854.7140906712,2.221735208744371e-05
-51814.17580819129,2.2409435294092463e-05
-51773.637525711376,2.2601407600165797e-05
-51733.09924323146,2.279251399960736e-05
-51692.56096075154,2.298230085275016e-05
-51652.022678271635,2.3171634568504753e-05
-51611.48439579172,2.336624576901412e-05
-51570.9461133118,2.356386804913072e-05
-51530.407830831886,2.3758660779169837e-05
-51489.86954835197,2.3953007570367333e-05
-51449.33126587205,2.41460259782458e-05
-51408.792983392144,2.433709149323136e-05
-51368.25470091223,2.4525824399459878e-05
-51327.71641843231,2.470998373681115e-05
-51287.178135952396,2.4893994869800193e-05
-51246.63985347249,2.5083005521720542e-05
-51206.10157099257,2.527015637577411e-05
-51165.563288512654,2.5461220170430704e-05
-51125.02500603274,2.566152866599673e-05
-51084.48672355282,2.5863554610387373e-05
-51043.948441072906,2.60654218951179e-05
-51003.410158593,2.6264107602988936e-05
-50962.87187611308,2.646594400660432e-05
-50922.333593633164,2.6670527040844703e-05
-50881.79531115325,2.6877939231901475e-05
-50841.25702867334,2.7088164243747785e-05
-50800.71874619342,2.729648810715813e-05
-50760.18046371351,2.7506763898785838e-05
-50719.64218123359,2.771793436581088e-05
-50679.103898753674,2.793116816600583e-05
-50638.56561627376,2.8138743814433935e-05
-50598.02733379385,2.8346288763720576e-05
-50557.48905131393,2.855250288812195e-05
-50516.950768834016,2.87609176647469e-05
-50476.4124863541,2.8969789908970248e-05
-50435.87420387419,2.9176824488064403e-05
-50395.335921394275,2.9380619642928446e-05
-50354.79763891436,2.9582134116367997e-05
-50314.25935643444,2.9784557192486308e-05
-50273.721073954526,2.9987344124583612e-05
-50233.18279147461,3.019088581636723e-05
-50192.6445089947,3.0390988395422144e-05
-50152.106226514785,3.058809265967628e-05
-50111.56794403487,3.0784666205398846e-05
-50071.02966155495,3.0974637651310726e-05
-50030.49137907504,3.115977658708026e-05
-49989.95309659513,3.13459127540681e-05
-49949.41481411521,3.1532092949089705e-05
-49908.876531635295,3.171887429030201e-05
-49868.33824915538,3.190971701646305e-05
-49827.79996667546,3.2095834811745946e-05
-49787.26168419555,3.227952150446605e-05
-49746.72340171564,3.246066130469107e-05
-49706.18511923572,3.2643527651142796e-05
-49665.646836755805,3.2825459563431206e-05
-49625.108554275896,3.3007828753825864e-05
-49584.57027179598,3.3186659116273974e-05
-49544.03198931606,3.33626706208196e-05
-49503.49370683615,3.353309320198333e-05
-49462.95542435623,3.3701210416242435e-05
-49422.417141876314,3.386794646521173e-05
-49381.878859396405,3.403707462007888e-05
-49341.34057691649,3.420476916819836e-05
-49300.80229443657,3.437047739406611e-05
-49260.26401195666,3.4533442028910744e-05
-49219.72572947675,3.469774161522498e-05
-49179.18744699683,3.485987308010966e-05
-49138.649164516915,3.5017290337543084e-05
-49098.110882037,3.5171852750820016e-05
-49057.57259955708,3.532515069241059e-05
-49017.03431707717,3.547439026663665e-05
-48976.49603459726,3.562011111909152e-05
-48935.95775211734,3.576312589264659e-05
-48895.419469637425,3.590148296003685e-05
-48854.88118715751,3.6035675491863226e-05
-48814.3429046776,3.616306776830136e-05
-48773.804622197684,3.628922476019529e-05
-48733.26633971777,3.641496414516454e-05
-48692.72805723785,3.6540382123764996e-05
-48652.189774757935,3.666482733646734e-05
-48611.65149227802,3.6785601210830985e-05
-48571.11320979811,3.6908776518877546e-05
-48530.574927318194,3.7030020314431286e-05
-48490.03664483828,3.715362882186298e-05
-48449.49836235836,3.727595789081841e-05
-48408.96007987845,3.739783329883257e-05
-48368.421797398536,3.7522489313368535e-05
-48327.88351491862,3.7649541408186795e-05
-48287.3452324387,3.778348730134996e-05
-48246.80694995879,3.791663190721511e-05
-48206.26866747887,3.8046127302988695e-05
-48165.73038499896,3.8173200908714275e-05
-48125.192102519046,3.829751568406281e-05
-48084.65382003913,3.8421071710092885e-05
-48044.11553755921,3.854230429222743e-05
-48003.577255079304,3.865941597761537e-05
-47963.03897259939,3.876983096117914e-05
-47922.50069011947,3.8876874523217065e-05
-47881.962407639556,3.8985176398040265e-05
-47841.42412515964,3.908928311024445e-05
-47800.88584267972,3.919108441632371e-05
-47760.347560199814,3.928947031271967e-05
-47719.8092777199,3.938842211108603e-05
-47679.27099523998,3.94844907484935e-05
-47638.732712760066,3.957732845170283e-05
-47598.19443028016,3.967294581329924e-05
-47557.65614780024,3.976733526776832e-05
-47517.117865320324,3.9857441418705057e-05
-47476.57958284041,3.994747083795437e-05
-47436.04130036049,4.003362819918171e-05
-47395.503017880575,4.011458100044881e-05
-47354.96473540067,4.019102496862729e-05
-47314.42645292075,4.0260740145708087e-05
-47273.888170440834,4.033047578883645e-05
-47233.34988796092,4.0404387598781326e-05
-47192.81160548101,4.0478662211825314e-05
-47152.27332300109,4.054657449463144e-05
-47111.73504052118,4.061238954302356e-05
-47071.19675804126,4.066992941395366e-05
-47030.658475561344,4.072582117028915e-05
-46990.12019308143,4.077712304370069e-05
-46949.58191060152,4.083039023093119e-05
-46909.0436281216,4.0880766270379256e-05
-46868.505345641686,4.092685575139247e-05
-46827.96706316177,4.097352031422362e-05
-46787.42878068186,4.101952643137709e-05
-46746.890498201945,4.106485281322287e-05
-46706.35221572203,4.110793886313118e-05
-46665.81393324211,4.11438944333486e-05
-46625.275650762196,4.117696908131415e-05
-46584.73736828228,4.120288041145674e-05
-46544.19908580237,4.122458652285e-05
-46503.660803322455,4.124131135886915e-05
-46463.12252084254,4.1253323324847425e-05
-46422.58423836262,4.1260037478236465e-05
-46382.04595588271,4.126713093711934e-05
-46341.5076734028,4.1270184094332656e-05
-46300.96939092288,4.126798528515454e-05
-46260.431108442965,4.1266857846632496e-05
-46219.89282596305,4.126700612560798e-05
-46179.35454348313,4.1263537300670665e-05
-46138.81626100322,4.125566520978635e-05
-46098.27797852331,4.12431655170657e-05
-46057.73969604339,4.122916576011833e-05
-46017.201413563474,4.120881025317399e-05
-45976.663131083566,4.118242624658587e-05
-45936.12484860365,4.1157700019416774e-05
-45895.58656612373,4.113073481501948e-05
-45855.04828364382,4.109953587088869e-05
-45814.5100011639,4.107629740311402e-05
-45773.971718683984,4.105357671637371e-05
-45733.433436204075,4.1036713902842385e-05
-45692.89515372416,4.1017810976495624e-05
-45652.35687124424,4.099474924437123e-05
-45611.81858876433,4.0963817187729425e-05
-45571.28030628442,4.092716988022766e-05
-45530.7420238045,4.0886052565021584e-05
-45490.203741324585,4.083691753121436e-05
-45449.66545884467,4.0782235233868324e-05
-45409.12717636475,4.072730046464588e-05
-45368.58889388484,4.066719141394764e-05
-45328.05061140493,4.060255113896143e-05
-45287.51232892501,4.05389758650901e-05
-45246.974046445095,4.0469974290361545e-05
-45206.43576396518,4.0397160229758775e-05
-45165.89748148527,4.0319354483342654e-05
-45125.359199005354,4.024112027297192e-05
-45084.82091652544,4.0158584185528433e-05
-45044.28263404552,4.007409067541563e-05
-45003.744351565605,3.998981890632682e-05
-44963.20606908569,3.9900733675180844e-05
-44922.66778660578,3.980741779247659e-05
-44882.12950412586,3.97092523651828e-05
-44841.59122164595,3.960860751720882e-05
-44801.05293916603,3.950563028274049e-05
-44760.51465668612,3.94023160363455e-05
-44719.976374206206,3.929745915672669e-05
-44679.43809172629,3.9189582944788666e-05
-44638.89980924637,3.9077085834712946e-05
-44598.36152676646,3.896781806562616e-05
-44557.82324428654,3.8860471897987975e-05
-44517.28496180663,3.875328177886315e-05
-44476.746679326716,3.864747319709717e-05
-44436.2083968468,3.854363630520877e-05
-44395.67011436688,3.844115038103257e-05
-44355.131831886974,3.834066753300595e-05
-44314.59354940706,3.824112440798077e-05
-44274.05526692714,3.814325460468397e-05
-44233.516984447226,3.804470136723731e-05
-44192.97870196731,3.795167842153145e-05
-44152.44041948739,3.786339713851575e-05
-44111.902137007484,3.777455548741378e-05
-44071.36385452757,3.768295122658436e-05
-44030.82557204765,3.7586920988054764e-05
-43990.287289567736,3.74866994073353e-05
-43949.74900708783,3.7387061480099874e-05
-43909.21072460791,3.728869787649584e-05
-43868.672442127994,3.7191972950254146e-05
-43828.13415964808,3.709552857796455e-05
-43787.59587716816,3.6997943356868606e-05
-43747.057594688245,3.6904286145183826e-05
-43706.51931220833,3.6811956748783995e-05
-43665.98102972842,3.6719546108327056e-05
-43625.442747248504,3.662324755252142e-05
-43584.904464768595,3.652583513777996e-05
-43544.36618228868,3.642662560591701e-05
-43503.82789980876,3.632678464033048e-05
-43463.289617328846,3.6226150638687005e-05
-43422.75133484893,3.6123436680639205e-05
-43382.213052369014,3.602026252466944e-05
-43341.6747698891,3.59215459608014e-05
-43301.13648740918,3.582608714205167e-05
-43260.59820492927,3.5729660622812696e-05
-43220.059922449356,3.5633842272243e-05
-43179.52163996945,3.553478054658159e-05
-43138.98335748953,3.543500084226891e-05
-43098.445075009615,3.5332923410703736e-05
-43057.9067925297,3.522670165594856e-05
-43017.36851004978,3.5121344588857467e-05
-42976.830227569866,3.501916483398046e-05
-42936.29194508995,3.491680057839956e-05
-42895.753662610034,3.482196667259215e-05
-42855.215380130125,3.4739903530685614e-05
-42814.67709765021,3.4659051374720255e-05
-42774.1388151703,3.458612297055256e-05
-42733.60053269038,3.451215323674243e-05
-42693.06225021047,3.443874336070217e-05
-42652.52396773055,3.4370460359217135e-05
-42611.985685250635,3.431166862205209e-05
-42571.44740277072,3.425809452891937e-05
-42530.9091202908,3.420161815293496e-05
-42490.370837810886,3.4147298401375675e-05
-42449.83255533098,3.409323857482273e-05
-42409.29427285106,3.403960773050736e-05
-42368.75599037115,3.398097631071998e-05
-42328.217707891235,3.39271201893772e-05
-42287.67942541132,3.3870445644122806e-05
-42247.1411429314,3.3816066244197454e-05
-42206.60286045149,3.3767028787501975e-05
-42166.06457797157,3.371817444113608e-05
-42125.526295491654,3.366666764649948e-05
-42084.98801301174,3.361581627280323e-05
-42044.44973053183,3.3567570793395844e-05
-42003.91144805191,3.3520538887038363e-05
-41963.373165572004,3.347609720217849e-05
-41922.83488309209,3.343113909222922e-05
-41882.29660061217,3.338482926388574e-05
-41841.758318132255,3.334068982594522e-05
-41801.22003565234,3.329040664163462e-05
-41760.68175317242,3.323841745062237e-05
-41720.14347069251,3.319138295547774e-05
-41679.60518821259,3.315256369068973e-05
-41639.06690573268,3.3117649914051194e-05
-41598.528623252765,3.308947556792196e-05
-41557.990340772856,3.305931506403429e-05
-41517.45205829294,3.302873040570666e-05
-41476.913775813024,3.299756050505781e-05
-41436.37549333311,3.297534310514627e-05
-41395.83721085319,3.295640055842956e-05
-41355.298928373275,3.293845329421521e-05
-41314.76064589336,3.292390245500911e-05
-41274.22236341344,3.2907748656405704e-05
-41233.68408093353,3.288819097351908e-05
-41193.14579845362,3.287261694873711e-05
-41152.60751597371,3.2857164817476135e-05
-41112.06923349379,3.2848041155636145e-05
-41071.530951013876,3.2844582357288646e-05
-41030.99266853396,3.284736110544209e-05
-40990.45438605404,3.285064471652246e-05
-40949.91610357413,3.285984099438334e-05
-40909.37782109421,3.287240154796673e-05
-40868.839538614295,3.288715547386703e-05
-40828.301256134386,3.29042753344519e-05
-40787.76297365447,3.2922817513802883e-05
