grid,density
-22414.135702276828,0.0
-22373.95775363378,0.0
-22333.779804990732,0.0
-22293.601856347683,0.0
-22253.423907704633,0.0
-22213.245959061584,0.0
-22173.068010418538,0.0
-22132.890061775488,0.0
-22092.71211313244,0.0
-22052.53416448939,0.0
-22012.356215846343,0.0
-21972.178267203293,0.0
-21932.000318560244,0.0
-21891.822369917194,7.838798545514647e-10
-21851.644421274148,4.060939107653691e-09
-21811.4664726311,7.2910154323963e-09
-21771.28852398805,1.0474108828779021e-08
-21731.110575345,1.3610219296801853e-08
-21690.932626701953,1.6699346836464514e-08
-21650.754678058904,1.9741491447767555e-08
-21610.576729415854,2.273665313071071e-08
-21570.398780772804,2.5684831885293962e-08
-21530.22083212976,2.858602771151708e-08
-21490.04288348671,3.1440240609380555e-08
-21449.86493484366,3.424747057888413e-08
-21409.68698620061,3.700771762002782e-08
-21369.509037557564,3.972098173281138e-08
-21329.331088914514,4.238726291723529e-08
-21289.153140271465,4.5006561173299304e-08
-21248.975191628415,4.757887650100344e-08
-21208.79724298537,5.010420890034742e-08
-21168.61929434232,5.2582558371331766e-08
-21128.44134569927,5.5013924913956214e-08
-21088.26339705622,5.739830852822075e-08
-21048.085448413174,5.973570921412521e-08
-21007.907499770125,6.202612697166998e-08
-20967.729551127075,6.426956180085484e-08
-20927.551602484025,6.646601370167982e-08
-20887.37365384098,6.861548267414472e-08
-20847.19570519793,7.071796871824991e-08
-20807.01775655488,7.277347183399522e-08
-20766.83980791183,7.478199202138062e-08
-20726.661859268785,7.674352928040596e-08
-20686.483910625735,7.86580836110716e-08
-20646.305961982685,8.052565501337732e-08
-20606.128013339636,8.234624348732317e-08
-20565.95006469659,8.411984903290895e-08
-20525.77211605354,8.5846471650135e-08
-20485.59416741049,8.752611133900115e-08
-20445.41621876744,8.915876809950744e-08
-20405.238270124395,9.074444193165368e-08
-20365.060321481345,9.228313283544016e-08
-20324.882372838296,9.377484081086674e-08
-20284.704424195246,9.521956585793345e-08
-20244.5264755522,9.661730797664013e-08
-20204.34852690915,9.796806716698704e-08
-20164.1705782661,9.927184342897406e-08
-20123.99262962305,1.005286367626012e-07
-20083.814680980006,1.0173844716786831e-07
-20043.636732336956,1.0290127464477566e-07
-20003.458783693906,1.040171191933231e-07
-19963.280835050857,1.0522642511075545e-07
-19923.10288640781,1.0953450960714806e-07
-19882.92493776476,1.1374862824682128e-07
-19842.74698912171,1.1786878102977475e-07
-19802.569040478662,1.2189496795600843e-07
-19762.391091835616,1.2582718902552187e-07
-19722.213143192566,1.29665444238316e-07
-19682.035194549517,1.334097335943903e-07
-19641.857245906467,1.370600570937448e-07
-19601.67929726342,1.4061641473637917e-07
-19561.50134862037,1.4407880652229416e-07
-19521.323399977322,1.4744723245148932e-07
-19481.145451334272,1.5251574245752223e-07
-19440.967502691226,1.5895888481971141e-07
-19400.789554048177,1.6526107839682152e-07
-19360.611605405127,1.7142232318885192e-07
-19320.433656762078,1.7744261919580265e-07
-19280.25570811903,1.8424650703945713e-07
-19240.077759475982,1.9325996183313373e-07
-19199.899810832932,2.020854849133708e-07
-19159.721862189883,2.1072307628016826e-07
-19119.543913546837,2.1917273593352548e-07
-19079.365964903787,2.274344638734438e-07
-19039.188016260738,2.3550826009992255e-07
-18999.010067617688,2.4339412461296173e-07
-18958.832118974642,2.510920574125607e-07
-18918.654170331592,2.586020584987207e-07
-18878.476221688543,2.6592412787144124e-07
-18838.298273045493,2.7305826553072214e-07
-18798.120324402447,2.8000447147656285e-07
-18757.942375759398,2.8676274570896463e-07
-18717.764427116348,2.933330882279269e-07
-18677.5864784733,2.997154990334495e-07
-18637.408529830253,3.05909978125532e-07
-18597.230581187203,3.1191652550417555e-07
-18557.052632544153,3.177351411693796e-07
-18516.874683901107,3.2615293833198864e-07
-18476.696735258058,3.351303778476032e-07
-18436.518786615008,3.468707697703309e-07
-18396.34083797196,3.58329264122899e-07
-18356.16288932891,3.695058609053079e-07
-18315.984940685863,3.8040056011755643e-07
-18275.806992042813,3.910133617596466e-07
-18235.629043399764,4.0134426583157743e-07
-18195.451094756718,4.1139327233334795e-07
-18155.27314611367,4.211603812649601e-07
-18115.09519747062,4.334868779605943e-07
-18074.91724882757,4.4593783299196167e-07
-18034.73930018452,4.5805990752480986e-07
-17994.561351541473,4.713221720924108e-07
-17954.383402898424,4.860537768229549e-07
-17914.205454255374,5.004095181266199e-07
-17874.02750561233,5.143893960034044e-07
-17833.84955696928,5.279934104533111e-07
-17793.67160832623,5.412215614763387e-07
-17753.49365968318,5.54073849072487e-07
-17713.31571104013,5.665502732417563e-07
-17673.137762397084,5.786508339841453e-07
-17632.959813754034,5.903755312996562e-07
-17592.781865110985,6.017243651882881e-07
-17552.60391646794,6.126973356500398e-07
-17512.42596782489,6.232944426849134e-07
-17472.24801918184,6.335156862929078e-07
-17432.07007053879,6.433610664740231e-07
-17391.89212189574,6.52830583228259e-07
-17351.714173252694,6.619242365556153e-07
-17311.536224609645,6.706420264560931e-07
-17271.358275966595,6.789839529296918e-07
-17231.18032732355,6.869500159764108e-07
-17191.0023786805,6.945402155962512e-07
-17150.82443003745,7.017545517892125e-07
-17110.6464813944,7.102846182486491e-07
-17070.46853275135,7.219035645500395e-07
-17030.290584108305,7.377422397202264e-07
-16990.112635465255,7.53494911895663e-07
-16949.934686822206,7.725445156947523e-07
-16909.75673817916,7.933576487422336e-07
-16869.57878953611,8.135600037210377e-07
-16829.40084089306,8.331515806311634e-07
-16789.22289225001,8.52860679853614e-07
-16749.04494360696,8.745085509515664e-07
-16708.866994963915,8.954986610524787e-07
-16668.689046320866,9.158310101563544e-07
-16628.511097677816,9.355055982631916e-07
-16588.33314903477,9.545224253729885e-07
-16548.15520039172,9.775780221586284e-07
-16507.97725174867,1.0017887567860688e-06
-16467.79930310562,1.0252477645597511e-06
-16427.62135446257,1.0479550454796744e-06
-16387.443405819526,1.069910599545838e-06
-16347.265457176476,1.091114426758245e-06
-16307.087508533426,1.1115665271168936e-06
-16266.909559890379,1.1312669006217835e-06
-16226.73161124733,1.1510878156430492e-06
-16186.553662604281,1.1726322690860654e-06
-16146.375713961232,1.1934719786036834e-06
-16106.197765318184,1.2136069441959019e-06
-16066.019816675136,1.2330371658627222e-06
-16025.841868032086,1.2517626436041455e-06
-15985.663919389037,1.2697833774201695e-06
-15945.48597074599,1.289876154383103e-06
-15905.308022102941,1.309735967838887e-06
-15865.130073459892,1.3288440544409133e-06
-15824.952124816842,1.3490420544978116e-06
-15784.774176173794,1.3699086550543636e-06
-15744.596227530747,1.3899765458287974e-06
-15704.418278887697,1.4092457268211136e-06
-15664.240330244647,1.4299944874908273e-06
-15624.0623816016,1.4509219664383893e-06
-15583.884432958552,1.4710037526754726e-06
-15543.706484315502,1.4902398462020793e-06
-15503.528535672453,1.508630247018208e-06
-15463.350587029405,1.5261749551238574e-06
-15423.172638386357,1.542873970519029e-06
-15382.994689743307,1.5598074218958123e-06
-15342.816741100258,1.5780878913603392e-06
-15302.63879245721,1.5967599402209903e-06
-15262.460843814162,1.617425457405275e-06
-15222.282895171113,1.641667001634747e-06
-15182.104946528063,1.668980373590255e-06
-15141.926997885015,1.6988530877284728e-06
-15101.749049241967,1.727598211586053e-06
-15061.571100598918,1.7552157451629962e-06
-15021.393151955868,1.781705688459303e-06
-14981.21520331282,1.8092493509866513e-06
-14941.037254669773,1.8373609248833009e-06
-14900.859306026723,1.8669576165592656e-06
-14860.681357383673,1.8974278424383669e-06
-14820.503408740626,1.9278397630982756e-06
-14780.325460097578,1.959025560475198e-06
-14740.147511454528,1.9934477181704247e-06
-14699.96956281148,2.026507370943212e-06
-14659.791614168433,2.058204518793563e-06
-14619.613665525383,2.089425025034956e-06
-14579.435716882334,2.121672770252296e-06
-14539.257768239286,2.154592001235554e-06
-14499.079819596238,2.1872793140996635e-06
-14458.901870953188,2.2185101561846176e-06
-14418.723922310139,2.251113006816489e-06
-14378.545973667091,2.2826787325093532e-06
-14338.368025024043,2.3127410044946994e-06
-14298.190076380994,2.3445224414146783e-06
-14258.012127737944,2.3781616030996218e-06
-14217.834179094896,2.4102973110770467e-06
-14177.656230451847,2.4409295653469563e-06
-14137.478281808799,2.470058365909348e-06
-14097.30033316575,2.4976837127642253e-06
-14057.122384522701,2.5238056059115834e-06
-14016.944435879652,2.5484240453514275e-06
-13976.766487236604,2.5715390310837534e-06
-13936.588538593554,2.5948958914980905e-06
-13896.410589950507,2.61826753975578e-06
-13856.232641307457,2.646140847828497e-06
-13816.05469266441,2.6747954239098504e-06
-13775.87674402136,2.7032734779195553e-06
-13735.698795378312,2.7301541123650243e-06
-13695.520846735262,2.7584736517770733e-06
-13655.342898092214,2.785404285806545e-06
-13615.164949449165,2.8117045333129596e-06
-13574.987000806117,2.8386958988990986e-06
-13534.809052163067,2.866091136099726e-06
-13494.63110352002,2.8931473463762723e-06
-13454.45315487697,2.9185591541602245e-06
-13414.275206233922,2.948977579694551e-06
-13374.097257590873,2.9837355474971086e-06
-13333.919308947825,3.024776204123462e-06
-13293.741360304775,3.0660535400227354e-06
-13253.563411661728,3.106172111925807e-06
-13213.385463018678,3.146779504922785e-06
-13173.20751437563,3.185366632000287e-06
-13133.02956573258,3.223330994513333e-06
-13092.851617089533,3.262764132998264e-06
-13052.673668446483,3.3021875242685153e-06
-13012.495719803435,3.343797476186664e-06
-12972.317771160386,3.385085082166207e-06
-12932.139822517338,3.426446343120857e-06
-12891.961873874288,3.4665732203025774e-06
-12851.78392523124,3.507352197173828e-06
-12811.605976588191,3.546717071222569e-06
-12771.428027945143,3.5880598284848446e-06
-12731.250079302094,3.6292944402360692e-06
-12691.072130659046,3.6683208543543763e-06
-12650.894182015996,3.70827092195254e-06
-12610.716233372948,3.7497957936308244e-06
-12570.538284729899,3.798147124317995e-06
-12530.360336086851,3.844407821700466e-06
-12490.182387443801,3.8882254068082265e-06
-12450.004438800754,3.9381083466102915e-06
-12409.826490157704,3.994300457003924e-06
-12369.648541514656,4.0536334678450975e-06
-12329.470592871607,4.111883215516158e-06
-12289.292644228559,4.169247864053394e-06
-12249.11469558551,4.223981468602477e-06
-12208.936746942461,4.276084029163405e-06
-12168.758798299412,4.326982961685296e-06
-12128.580849656364,4.377091320118793e-06
-12088.402901013316,4.42518489080993e-06
-12048.224952370267,4.4753182028516365e-06
-12008.047003727219,4.52699094186068e-06
-11967.86905508417,4.578958305223642e-06
-11927.691106441122,4.628421797586914e-06
-11887.513157798072,4.675019331320236e-06
-11847.335209155024,4.718750906423601e-06
-11807.157260511975,4.759616522897018e-06
-11766.979311868927,4.797616180740476e-06
-11726.801363225877,4.834591205753031e-06
-11686.62341458283,4.871447525027817e-06
-11646.44546593978,4.9073336207561285e-06
-11606.267517296732,4.940259791997765e-06
-11566.089568653682,4.9720632466593e-06
-11525.911620010635,5.0098312218873944e-06
-11485.733671367585,5.0468502318146e-06
-11445.555722724537,5.084052693653502e-06
-11405.377774081488,5.127744244458681e-06
-11365.19982543844,5.178961397753841e-06
-11325.02187679539,5.230255151123704e-06
-11284.843928152342,5.283768844917257e-06
-11244.665979509293,5.3392437901748575e-06
-11204.488030866245,5.395518401163995e-06
-11164.310082223195,5.449927337037097e-06
-11124.132133580148,5.501863774605176e-06
-11083.954184937098,5.553041843081458e-06
-11043.77623629405,5.603374431781574e-06
-11003.598287651,5.658132616515579e-06
-10963.420339007953,5.712559756352476e-06
-10923.242390364903,5.765124727432608e-06
-10883.064441721855,5.822794980640908e-06
-10842.886493078806,5.885458910672791e-06
-10802.708544435758,5.946290242171336e-06
-10762.530595792708,6.0064772965612294e-06
-10722.35264714966,6.0630936483957646e-06
-10682.174698506611,6.116139297674954e-06
-10641.996749863563,6.168847609537418e-06
-10601.818801220514,6.22359772758168e-06
-10561.640852577466,6.278911025450101e-06
-10521.462903934416,6.3352883542777066e-06
-10481.284955291369,6.389754393971395e-06
-10441.107006648319,6.445128463779807e-06
-10400.929058005271,6.4982307144868035e-06
-10360.751109362222,6.5495133346479175e-06
-10320.573160719174,6.606598466329717e-06
-10280.395212076124,6.663961632816899e-06
-10240.217263433076,6.722595038962917e-06
-10200.039314790027,6.781946294073102e-06
-10159.861366146979,6.853670429750896e-06
-10119.68341750393,6.927392967081883e-06
-10079.505468860882,7.001974167443544e-06
-10039.327520217832,7.07803761746888e-06
-9999.149571574784,7.156228570742603e-06
-9958.971622931735,7.232008997780042e-06
-9918.793674288687,7.313038436219068e-06
-9878.615725645637,7.395076766096547e-06
-9838.43777700259,7.476450726463484e-06
-9798.25982835954,7.557097511539638e-06
-9758.081879716492,7.634213193805481e-06
-9717.903931073442,7.710708022784054e-06
-9677.725982430395,7.784711905498946e-06
-9637.548033787345,7.859577877960977e-06
-9597.370085144297,7.933969829091562e-06
-9557.192136501248,8.012889824352479e-06
-9517.0141878582,8.092548176101626e-06
-9476.83623921515,8.17296838472345e-06
-9436.658290572102,8.252635268805486e-06
-9396.480341929053,8.333437739598205e-06
-9356.302393286005,8.412793927720805e-06
-9316.124444642955,8.491391582571994e-06
-9275.946495999908,8.570937636733446e-06
-9235.768547356858,8.649078365699776e-06
-9195.59059871381,8.728537864626722e-06
-9155.41265007076,8.808163836297542e-06
-9115.234701427713,8.887183957620861e-06
-9075.056752784663,8.966146569396389e-06
-9034.878804141616,9.042090967101164e-06
-8994.700855498566,9.122250650633389e-06
-8954.522906855518,9.200830649634984e-06
-8914.344958212469,9.27957773904675e-06
-8874.16700956942,9.364788062049433e-06
-8833.989060926371,9.450126135592317e-06
-8793.811112283323,9.53690607422722e-06
-8753.633163640274,9.630571893300634e-06
-8713.455214997226,9.722770641621746e-06
-8673.277266354176,9.82319169269747e-06
-8633.099317711129,9.925301352049377e-06
-8592.921369068079,1.0029048400609636e-05
-8552.743420425031,1.0129751396009069e-05
-8512.565471781982,1.0229206963954146e-05
-8472.387523138934,1.032439240143217e-05
-8432.209574495884,1.0421377411368251e-05
-8392.031625852836,1.0516467189733743e-05
-8351.853677209787,1.06174965240149e-05
-8311.675728566739,1.0726916282215375e-05
-8271.49777992369,1.0839668551839768e-05
-8231.319831280642,1.0951479714382464e-05
-8191.141882637592,1.1079627949848241e-05
-8150.963933994544,1.1211578040731093e-05
-8110.785985351495,1.1347156500505236e-05
-8070.608036708447,1.1480131600595564e-05
-8030.430088065397,1.1623714229469323e-05
-7990.2521394223495,1.1762161945683731e-05
-7950.0741907793,1.1897754134360614e-05
-7909.896242136252,1.203319941832991e-05
-7869.7182934932025,1.2173318940350908e-05
-7829.540344850155,1.2310175247382e-05
-7789.362396207105,1.2445375143894753e-05
-7749.184447564057,1.258398816632251e-05
-7709.006498921008,1.2730094844688467e-05
-7668.82855027796,1.2884434811043157e-05
-7628.65060163491,1.3035945457688073e-05
-7588.472652991863,1.3181299142985171e-05
-7548.294704348813,1.3326505028943559e-05
-7508.116755705765,1.3476263962023223e-05
-7467.938807062716,1.3632123323483284e-05
-7427.760858419668,1.379528793776024e-05
-7387.582909776618,1.395983358905535e-05
-7347.40496113357,1.4124695051777386e-05
-7307.227012490521,1.4283458649645664e-05
-7267.049063847473,1.4439613283928272e-05
-7226.871115204423,1.4595953861453788e-05
-7186.693166561376,1.4749682803690584e-05
-7146.515217918326,1.4901928002126146e-05
-7106.337269275278,1.5051227469414504e-05
-7066.159320632229,1.5204118005424514e-05
-7025.981371989181,1.5354762225811676e-05
-6985.803423346133,1.550943621427515e-05
-6945.6254747030835,1.566398393939424e-05
-6905.447526060036,1.582887649841812e-05
-6865.269577416986,1.5995980648016637e-05
-6825.091628773938,1.616469895313428e-05
-6784.913680130889,1.6338536784775478e-05
-6744.735731487841,1.65171684294974e-05
-6704.557782844791,1.670747310462129e-05
-6664.3798342017435,1.6899850449193638e-05
-6624.201885558694,1.7093722119964272e-05
-6584.023936915646,1.7284782214839297e-05
-6543.8459882725965,1.7476245025749944e-05
-6503.668039629549,1.7660187924286457e-05
-6463.490090986499,1.783862116084652e-05
-6423.312142343451,1.8026254714672948e-05
-6383.134193700402,1.822438501993977e-05
-6342.956245057354,1.8432162176632298e-05
-6302.778296414304,1.864984207247953e-05
-6262.600347771257,1.8867122907971385e-05
-6222.422399128207,1.9089696501493958e-05
-6182.244450485159,1.931677929509744e-05
-6142.06650184211,1.953326981823755e-05
-6101.888553199062,1.975016737375625e-05
-6061.710604556012,1.9970990537688995e-05
-6021.532655912964,2.0205016595279588e-05
-5981.354707269915,2.0446170737633044e-05
-5941.176758626865,2.0683085917303645e-05
-5900.998809983819,2.091533544095974e-05
-5860.82086134077,2.1145768226660212e-05
-5820.64291269772,2.137765238937655e-05
-5780.46496405467,2.160781868549866e-05
-5740.287015411624,2.18469697077352e-05
-5700.109066768575,2.2090932710827437e-05
-5659.931118125525,2.23323053899373e-05
-5619.753169482476,2.256974978123003e-05
-5579.57522083943,2.281726522824289e-05
-5539.39727219638,2.3063053507267257e-05
-5499.2193235533305,2.330262236860528e-05
-5459.041374910281,2.3539377432464405e-05
-5418.863426267235,2.3778784243725216e-05
-5378.685477624185,2.4024166871383166e-05
-5338.507528981136,2.4270973342710193e-05
-5298.329580338086,2.4512187713970905e-05
-5258.15163169504,2.4745648045221206e-05
-5217.9736830519905,2.4980161232280976e-05
-5177.795734408941,2.5227875523381683e-05
-5137.617785765891,2.5477998796389766e-05
-5097.439837122845,2.5722115978813666e-05
-5057.261888479796,2.597189677668494e-05
-5017.083939836746,2.622293747393398e-05
-4976.9059911936965,2.6472217965782928e-05
-4936.728042550651,2.672021236579818e-05
-4896.550093907601,2.6967950990208447e-05
-4856.372145264551,2.721249135001761e-05
-4816.194196621502,2.7451508547868234e-05
-4776.016247978456,2.768726644203948e-05
-4735.838299335406,2.7921753568679963e-05
-4695.660350692357,2.8154240195467213e-05
-4655.482402049307,2.839677569331483e-05
-4615.304453406261,2.8641278952718796e-05
-4575.126504763211,2.888648254329957e-05
-4534.948556120162,2.913086263492688e-05
-4494.770607477112,2.938380603120251e-05
-4454.592658834066,2.9633936409572058e-05
-4414.414710191017,2.9881156107127585e-05
-4374.236761547967,3.0127319250064706e-05
-4334.058812904917,3.036967624190174e-05
-4293.8808642618715,3.061296470491555e-05
-4253.702915618822,3.085805588916022e-05
-4213.524966975772,3.110718525381196e-05
-4173.347018332723,3.136790542502078e-05
-4133.169069689677,3.163004783514677e-05
-4092.991121046627,3.190136492824873e-05
-4052.8131724035775,3.217093124506957e-05
-4012.635223760528,3.243155882338859e-05
-3972.457275117482,3.268252577592372e-05
-3932.2793264744323,3.292989928246601e-05
-3892.1013778313827,3.3181034715571895e-05
-3851.923429188333,3.3425927707602984e-05
-3811.745480545287,3.366819436205306e-05
-3771.5675319022375,3.391187755818043e-05
-3731.389583259188,3.416021761798754e-05
-3691.2116346161383,3.4409591445518295e-05
-3651.0336859730924,3.465365139111749e-05
-3610.8557373300428,3.4892077886576506e-05
-3570.677788686993,3.512324648241898e-05
-3530.4998400439435,3.534909958023524e-05
-3490.3218914008976,3.557387654537042e-05
-3450.143942757848,3.579415713098277e-05
-3409.9659941147984,3.600724219650535e-05
-3369.788045471749,3.621452225187205e-05
-3329.610096828703,3.643053644607651e-05
-3289.432148185653,3.6656967018927454e-05
-3249.2541995426036,3.6883681846443645e-05
-3209.076250899554,3.7109774253557284e-05
-3168.898302256508,3.733130624347598e-05
-3128.7203536134584,3.7551583769252136e-05
-3088.542404970409,3.7777487885216576e-05
-3048.364456327359,3.799560103680537e-05
-3008.1865076843133,3.8216913253114775e-05
