grid,density
-47598.491654201884,1.1120834876766964e-07
-47563.123717203984,1.2173974384367668e-07
-47527.75578020608,1.3215006499935538e-07
-47492.38784320818,1.4243931223470154e-07
-47457.01990621027,1.526074855497194e-07
-47421.65196921237,1.6265458494440473e-07
-47386.28403221447,1.725806104187596e-07
-47350.91609521656,1.8238556197278616e-07
-47315.54815821866,1.9276600754818667e-07
-47280.180221220755,2.0427861231008745e-07
-47244.812284222855,2.1694714981089085e-07
-47209.444347224955,2.3012085607467152e-07
-47174.07641022705,2.446935850895743e-07
-47138.70847322915,2.5948531378208166e-07
-47103.34053623124,2.7409543159409625e-07
-47067.97259923334,2.8852393852561225e-07
-47032.60466223544,3.027708345766328e-07
-46997.23672523753,3.1683611974716043e-07
-46961.86878823963,3.307197940371896e-07
-46926.500851241726,3.444218574467259e-07
-46891.132914243826,3.5858967255521364e-07
-46855.764977245926,3.745417871103612e-07
-46820.39704024802,3.9200945995724154e-07
-46785.02910325012,4.1077753946999756e-07
-46749.66116625221,4.294622722476288e-07
-46714.29322925431,4.4970138616327487e-07
-46678.92529225641,4.7135177127308974e-07
-46643.557355258505,4.930059471545156e-07
-46608.189418260605,5.143776172218329e-07
-46572.8214812627,5.3546678147505e-07
-46537.4535442648,5.562734399141585e-07
-46502.0856072669,5.767975925391629e-07
-46466.71767026899,5.970392393500669e-07
-46431.34973327109,6.169983803468624e-07
-46395.98179627319,6.366750155295536e-07
-46360.61385927528,6.560691448981448e-07
-46325.24592227738,6.751807684526274e-07
-46289.877985279476,6.941915108469177e-07
-46254.510048281576,7.146932185137838e-07
-46219.14211128367,7.348922413798279e-07
-46183.77417428577,7.547885794450414e-07
-46148.40623728787,7.785722395613952e-07
-46113.03830028996,8.03690939531257e-07
-46077.67036329206,8.284464177401225e-07
-46042.30242629416,8.533490227398444e-07
-46006.934489296254,8.812867355457262e-07
-45971.566552298355,9.107770274812148e-07
-45936.19861530045,9.398443699546785e-07
-45900.83067830255,9.684879537069798e-07
-45865.46274130465,9.967077787381244e-07
-45830.09480430674,1.0245038450481186e-06
-45794.72686730884,1.0524876294424214e-06
-45759.35893031093,1.0813868552592406e-06
-45723.99099331303,1.1107548813383184e-06
-45688.62305631513,1.1413585718040002e-06
-45653.255119317226,1.1728037139402301e-06
-45617.887182319326,1.204225059428723e-06
-45582.51924532142,1.236917215194598e-06
-45547.15130832352,1.2707957775337921e-06
-45511.78337132562,1.3041496862182202e-06
-45476.41543432771,1.3369789412478914e-06
-45441.04749732981,1.36928354262279e-06
-45405.679560331904,1.4010634903429303e-06
-45370.311623334004,1.4331602856085402e-06
-45334.943686336104,1.466128985627228e-06
-45299.5757493382,1.5002170868031848e-06
-45264.2078123403,1.5337401763509252e-06
-45228.83987534239,1.5686056825569665e-06
-45193.47193834449,1.6064554853987704e-06
-45158.10400134659,1.6460353413275533e-06
-45122.73606434868,1.6849694696812485e-06
-45087.36812735078,1.7232578704598404e-06
-45052.000190352876,1.7616173842853152e-06
-45016.632253354976,1.8005639222240973e-06
-44981.264316357076,1.8393036934995591e-06
-44945.89637935917,1.8790596270025393e-06
-44910.52844236127,1.9205694165625886e-06
-44875.16050536336,1.962649090313099e-06
-44839.79256836546,2.0045539764516246e-06
-44804.42463136756,2.0499471473618915e-06
-44769.056694369654,2.095663533645314e-06
-44733.688757371754,2.14186649080012e-06
-44698.32082037385,2.1879527675295463e-06
-44662.95288337595,2.2332318847900942e-06
-44627.58494637805,2.2777038425817735e-06
-44592.21700938014,2.3213686409045915e-06
-44556.84907238224,2.3642262797585314e-06
-44521.48113538433,2.410066306216172e-06
-44486.11319838643,2.458693284169254e-06
-44450.74526138853,2.5090572869305996e-06
-44415.377324390625,2.5637989095234546e-06
-44380.009387392725,2.6220535107721866e-06
-44344.64145039482,2.683446009996665e-06
-44309.27351339692,2.749397429593505e-06
-44273.90557639902,2.8159758625919152e-06
-44238.53763940111,2.8820560665448632e-06
-44203.16970240321,2.948324920874346e-06
-44167.801765405304,3.0184035366830324e-06
-44132.433828407404,3.0922329205700894e-06
-44097.065891409504,3.16843051589012e-06
-44061.6979544116,3.244822079017745e-06
-44026.3300174137,3.3205480037548855e-06
-43990.96208041579,3.395535893789236e-06
-43955.59414341789,3.47605730928147e-06
-43920.22620641999,3.5598794050803785e-06
-43884.85826942208,3.6502293049354448e-06
-43849.49033242418,3.7424663533939258e-06
-43814.12239542628,3.833149619874835e-06
-43778.754458428375,3.923375877942158e-06
-43743.386521430475,4.012897256668181e-06
-43708.01858443257,4.100844674429917e-06
-43672.65064743467,4.187909086131584e-06
-43637.28271043676,4.2753210153113745e-06
-43601.91477343886,4.3650962663595855e-06
-43566.54683644096,4.455761149503365e-06
-43531.17889944305,4.547308470456426e-06
-43495.81096244515,4.637237694286853e-06
-43460.44302544725,4.726712268599354e-06
-43425.07508844935,4.8169044749797566e-06
-43389.70715145145,4.90672324672287e-06
-43354.33921445354,4.997493632808017e-06
-43318.97127745564,5.0921365352442335e-06
-43283.60334045773,5.194533872889621e-06
-43248.23540345983,5.300383992210673e-06
-43212.86746646193,5.410728339014428e-06
-43177.499529464025,5.52695223997694e-06
-43142.131592466125,5.6466442629861625e-06
-43106.763655468225,5.773387844139659e-06
-43071.39571847032,5.903050803945021e-06
-43036.02778147242,6.036049524826471e-06
-43000.65984447451,6.16664694628806e-06
-42965.29190747661,6.296414510740537e-06
-42929.9239704787,6.42937185269801e-06
-42894.5560334808,6.562460039956416e-06
-42859.1880964829,6.693046032861319e-06
-42823.820159484996,6.82448527184468e-06
-42788.452222487096,6.962975141763421e-06
-42753.084285489196,7.099956088361127e-06
-42717.71634849129,7.23683341072559e-06
-42682.34841149339,7.374728837553555e-06
-42646.98047449548,7.515048578373196e-06
-42611.61253749758,7.653136589512251e-06
-42576.244600499675,7.791381783958823e-06
-42540.876663501775,7.930291880165408e-06
-42505.508726503875,8.067268873412034e-06
-42470.14078950597,8.201995077144391e-06
-42434.77285250807,8.33718940907076e-06
-42399.40491551017,8.472165264904966e-06
-42364.03697851226,8.605474869517526e-06
-42328.66904151436,8.736783441629307e-06
-42293.30110451645,8.869031322582612e-06
-42257.93316751855,9.000603736427705e-06
-42222.56523052065,9.134632838333214e-06
-42187.197293522746,9.269887689332048e-06
-42151.829356524846,9.408435082209742e-06
-42116.46141952694,9.550115580945304e-06
-42081.09348252904,9.694940223986074e-06
-42045.72554553114,9.839706288981378e-06
-42010.35760853323,9.982404064174742e-06
-41974.98967153533,1.0124436815299704e-05
-41939.621734537424,1.0269394946796358e-05
-41904.253797539524,1.0412425555329329e-05
-41868.885860541624,1.0553776330673561e-05
-41833.51792354372,1.0694827620340493e-05
-41798.14998654582,1.0835606798009514e-05
-41762.78204954791,1.0974466431046273e-05
-41727.41411255001,1.1113681668128604e-05
-41692.04617555211,1.1253180757527424e-05
-41656.6782385542,1.1394561297035392e-05
-41621.3103015563,1.1532656135749893e-05
-41585.942364558396,1.1672266218687145e-05
-41550.574427560496,1.1813970524701625e-05
-41515.206490562596,1.1953191627328442e-05
-41479.83855356469,1.2092069557325107e-05
-41444.47061656679,1.2231473588216873e-05
-41409.10267956888,1.2373586831828753e-05
-41373.73474257098,1.2519958172741122e-05
-41338.36680557308,1.2662430929294852e-05
-41302.998868575174,1.2802966298551199e-05
-41267.630931577274,1.2942976618055006e-05
-41232.262994579374,1.3079381546697812e-05
-41196.89505758147,1.3214464108300259e-05
-41161.52712058357,1.3349415983724011e-05
-41126.15918358566,1.3483345132056072e-05
-41090.79124658776,1.361976287461338e-05
-41055.42330958985,1.3756308563195438e-05
-41020.05537259195,1.389303975961626e-05
-40984.68743559405,1.4033440412986964e-05
-40949.319498596145,1.4176587247978125e-05
-40913.951561598245,1.4318513059880944e-05
-40878.583624600346,1.4461084051076262e-05
-40843.21568760244,1.4605495074238005e-05
-40807.84775060454,1.4747869230121542e-05
-40772.47981360663,1.4890135193344983e-05
-40737.11187660873,1.5032752835660756e-05
-40701.743939610824,1.5175772383633819e-05
-40666.376002612924,1.5318960186917902e-05
-40631.008065615024,1.5463552597033816e-05
-40595.64012861712,1.5606015827839693e-05
-40560.27219161922,1.5749726824281656e-05
-40524.90425462132,1.5896866548166005e-05
-40489.53631762341,1.6047878679462785e-05
-40454.16838062551,1.620855425928138e-05
-40418.8004436276,1.6372993843238858e-05
-40383.4325066297,1.653663186646727e-05
-40348.064569631795,1.670066236613525e-05
-40312.696632633895,1.686752330618867e-05
-40277.328695635995,1.7036714379572415e-05
-40241.96075863809,1.7202271179823638e-05
-40206.59282164019,1.7364894605978084e-05
-40171.22488464229,1.7533839409319258e-05
-40135.85694764438,1.7707315831919823e-05
-40100.48901064648,1.788292021132983e-05
-40065.121073648574,1.805853908549956e-05
-40029.753136650674,1.8236016169798623e-05
-39994.38519965277,1.8419859127589322e-05
-39959.01726265487,1.8609140678821136e-05
-39923.64932565697,1.8797174882606236e-05
-39888.28138865906,1.898786964672704e-05
-39852.91345166116,1.917684190453694e-05
-39817.54551466326,1.9368305388073097e-05
-39782.17757766535,1.956234997227114e-05
-39746.80964066745,1.9756193895240208e-05
-39711.441703669545,1.9947135911855186e-05
-39676.073766671645,2.0132982368937302e-05
-39640.705829673745,2.031584485937931e-05
-39605.33789267584,2.049894715978504e-05
-39569.96995567794,2.0680613779508743e-05
-39534.60201868003,2.0863452870381268e-05
-39499.23408168213,2.1045831394058798e-05
-39463.86614468423,2.1229430980696307e-05
-39428.49820768632,2.141211678059182e-05
-39393.13027068842,2.15923856028188e-05
-39357.76233369052,2.177462317257881e-05
-39322.394396692616,2.1952052517978677e-05
-39287.02645969471,2.2129069901487018e-05
-39251.65852269681,2.231264479699915e-05
-39216.29058569891,2.2496089908862662e-05
-39180.922648701,2.267858765048942e-05
-39145.5547117031,2.2859130573227102e-05
-39110.1867747052,2.3043207589202734e-05
-39074.818837707295,2.322687718900791e-05
-39039.450900709395,2.3410808369337568e-05
-39004.082963711495,2.3593169620356476e-05
-38968.71502671359,2.377421774043224e-05
-38933.34708971568,2.395578664068642e-05
-38897.97915271778,2.4136785727162523e-05
-38862.61121571988,2.4319502655257514e-05
-38827.24327872197,2.4502132334135268e-05
-38791.87534172407,2.468166366882761e-05
-38756.50740472617,2.4858594210642166e-05
-38721.139467728266,2.503411377806439e-05
-38685.771530730366,2.5206942664640566e-05
-38650.403593732466,2.5379278216225942e-05
-38615.03565673456,2.5553127499987633e-05
-38579.66771973666,2.5723975944436398e-05
-38544.29978273875,2.5891460106511227e-05
-38508.93184574085,2.6060359242615186e-05
-38473.563908742944,2.6228497734235887e-05
-38438.195971745045,2.6395858021744228e-05
-38402.828034747145,2.6563367264371787e-05
-38367.46009774924,2.6727332508701074e-05
-38332.09216075134,2.6889242323508613e-05
-38296.72422375344,2.705240642402511e-05
-38261.35628675553,2.721505613983836e-05
-38225.98834975763,2.7377668950817797e-05
-38190.62041275972,2.75412785673481e-05
-38155.25247576182,2.7700909819365072e-05
-38119.884538763916,2.7860067972024914e-05
-38084.516601766016,2.8019866590426958e-05
-38049.148664768116,2.817783807218841e-05
-38013.78072777021,2.834018804475861e-05
-37978.41279077231,2.8508218567553886e-05
-37943.04485377441,2.8675328794921098e-05
-37907.6769167765,2.8840214497709855e-05
-37872.3089797786,2.9003871396419987e-05
-37836.941042780694,2.9163020689353444e-05
-37801.573105782794,2.931449151454882e-05
-37766.20516878489,2.9460402550439826e-05
-37730.83723178699,2.9602496149297816e-05
-37695.46929478909,2.9738646053891112e-05
-37660.10135779118,2.9869391608769085e-05
-37624.73342079328,2.999941607758841e-05
-37589.36548379538,3.012697157028685e-05
-37553.99754679747,3.025187003368041e-05
-37518.62960979957,3.038203631206869e-05
-37483.261672801666,3.0511698984811597e-05
-37447.893735803766,3.063945267331964e-05
-37412.52579880586,3.076880825911359e-05
-37377.15786180796,3.08962588502565e-05
-37341.78992481006,3.102169011770106e-05
-37306.42198781215,3.1143481432772815e-05
-37271.05405081425,3.1264002098903446e-05
-37235.68611381635,3.13844657148907e-05
-37200.318176818444,3.1503106969465024e-05
-37164.950239820544,3.1617078804740835e-05
-37129.58230282264,3.17242858838644e-05
-37094.21436582474,3.1826054449657785e-05
-37058.84642882683,3.19316640598313e-05
-37023.47849182893,3.203756870192742e-05
-36988.11055483103,3.21453093694104e-05
-36952.74261783312,3.225127755590427e-05
-36917.37468083522,3.235709150295646e-05
-36882.00674383732,3.2459147607659394e-05
-36846.638806839415,3.2554078517748896e-05
-36811.270869841515,3.264516217179728e-05
-36775.902932843615,3.273619469609817e-05
-36740.53499584571,3.282446581027049e-05
-36705.1670588478,3.291394419213377e-05
-36669.7991218499,3.299972461646834e-05
-36634.431184852,3.3083384685887374e-05
-36599.063247854094,3.3162874460848756e-05
-36563.695310856194,3.323447963102367e-05
-36528.327373858294,3.330450574496409e-05
-36492.95943686039,3.336913350235121e-05
-36457.59149986249,3.343053568636853e-05
-36422.22356286459,3.348957215817732e-05
-36386.85562586668,3.355111492045384e-05
-36351.48768886877,3.3610015426235517e-05
-36316.11975187087,3.367845045080978e-05
-36280.75181487297,3.3753179308140005e-05
-36245.383877875065,3.383066462996449e-05
-36210.015940877165,3.391438458511867e-05
-36174.648003879265,3.3994433904938144e-05
-36139.28006688136,3.407470766817964e-05
-36103.91212988346,3.4151187098374824e-05
-36068.54419288556,3.4226171881800026e-05
-36033.17625588765,3.430122304219112e-05
-35997.80831888975,3.43761522126041e-05
-35962.44038189184,3.4446507946721904e-05
-35927.07244489394,3.451722218399986e-05
-35891.70450789604,3.45970283618024e-05
-35856.33657089814,3.467573649507303e-05
-35820.96863390024,3.475655571096908e-05
-35785.60069690233,3.4839811572666455e-05
-35750.23275990443,3.4920436399674316e-05
-35714.86482290653,3.499747076958418e-05
-35679.49688590862,3.507229819387029e-05
-35644.12894891072,3.5146177914358436e-05
-35608.761011912815,3.521533562668048e-05
-35573.393074914915,3.528228742721759e-05
-35538.02513791701,3.5349030433820906e-05
-35502.65720091911,3.541230967804058e-05
-35467.28926392121,3.5473413409493003e-05
-35431.9213269233,3.5529497043997206e-05
-35396.5533899254,3.558521572317732e-05
-35361.1854529275,3.5638723122069954e-05
-35325.81751592959,3.5695854867242224e-05
-35290.44957893169,3.575497843928554e-05
-35255.081641933786,3.581851697505827e-05
-35219.713704935886,3.5887703237077685e-05
-35184.34576793798,3.5964198206713544e-05
-35148.97783094008,3.603811640950432e-05
-35113.60989394218,3.610767640977634e-05
-35078.24195694427,3.6179602653691735e-05
-35042.87401994637,3.625849464342871e-05
-35007.50608294847,3.634616579986716e-05
-34972.138145950565,3.643257416805582e-05
-34936.770208952665,3.651952817243115e-05
-34901.40227195476,3.660553084075725e-05
-34866.03433495686,3.6689758757839965e-05
-34830.66639795895,3.677028822400209e-05
-34795.29846096105,3.684787931994199e-05
-34759.93052396315,3.6925109740031166e-05
-34724.56258696524,3.699812344667516e-05
-34689.19464996734,3.7069849211071086e-05
-34653.82671296944,3.7144379147407516e-05
-34618.458775971536,3.721697091474155e-05
-34583.090838973636,3.728672521668511e-05
-34547.72290197573,3.7352041859703066e-05
-34512.35496497783,3.7421363528875676e-05
-34476.98702797992,3.7493663933004964e-05
-34441.61909098202,3.756402470705196e-05
-34406.25115398412,3.7632927038633834e-05
-34370.883216986214,3.7697709101320944e-05
-34335.515279988314,3.77580286208231e-05
-34300.147342990414,3.781557128308709e-05
-34264.77940599251,3.787222600091564e-05
-34229.41146899461,3.792777336444741e-05
-34194.0435319967,3.798528386765387e-05
-34158.6755949988,3.803658405729571e-05
-34123.30765800089,3.8084527389065385e-05
-34087.93972100299,3.813362790658511e-05
-34052.57178400509,3.817976274381542e-05
-34017.203847007186,3.822218018156714e-05
-33981.835910009286,3.8262574104365204e-05
-33946.467973011386,3.830252029387758e-05
-33911.10003601348,3.834066300091815e-05
-33875.73209901558,3.837302929329356e-05
-33840.36416201768,3.839988396349562e-05
-33804.99622501977,3.8424271420470656e-05
-33769.628288021864,3.8444853537444194e-05
-33734.260351023964,3.8466615952722076e-05
-33698.892414026064,3.848500779118022e-05
-33663.52447702816,3.850032915988092e-05
-33628.15654003026,3.8522776409615454e-05
-33592.78860303236,3.854694872369766e-05
-33557.42066603445,3.858397828400953e-05
-33522.05272903655,3.8622875594788485e-05
-33486.68479203865,3.866138690826294e-05
-33451.31685504074,3.870052587913265e-05
-33415.948918042835,3.874167834477812e-05
-33380.580981044935,3.878790374733845e-05
-33345.213044047036,3.882504267349667e-05
-33309.84510704913,3.8854138541294225e-05
-33274.47717005123,3.888332094614979e-05
-33239.10923305333,3.891819284135501e-05
-33203.74129605542,3.8956140710184e-05
-33168.37335905752,3.89941252587547e-05
-33133.00542205962,3.903573980088961e-05
-33097.637485061714,3.908251742873257e-05
-33062.269548063814,3.9132376853693146e-05
-33026.90161106591,3.918488484771071e-05
-32991.53367406801,3.923536048516978e-05
-32956.1657370701,3.928202150607167e-05
-32920.7978000722,3.933581876840375e-05
-32885.4298630743,3.93890185456831e-05
-32850.06192607639,3.943975645216401e-05
-32814.69398907849,3.948469609777363e-05
-32779.32605208059,3.952037342657877e-05
-32743.958115082685,3.9552576539823576e-05
-32708.590178084785,3.9586756548765126e-05
-32673.222241086878,3.962659545835426e-05
-32637.854304088978,3.966738904052678e-05
-32602.486367091074,3.9706038101391266e-05
-32567.11843009317,3.9752808490131995e-05
-32531.75049309527,3.980098462892723e-05
-32496.382556097364,3.9848795435046994e-05
-32461.014619099464,3.989516096896831e-05
-32425.64668210156,3.9933559430179026e-05
-32390.278745103657,3.99683066503296e-05
-32354.910808105757,4.000412134871934e-05
-32319.54287110785,4.003912813974263e-05
-32284.17493410995,4.0075677952754426e-05
-32248.806997112046,4.011390396488825e-05
-32213.439060114142,4.015398681888481e-05
-32178.071123116242,4.0195417321186096e-05
-32142.703186118335,4.024167715571599e-05
-32107.335249120435,4.028984454160814e-05
-32071.96731212253,4.0335482428618605e-05
-32036.599375124628,4.0382140966536676e-05
-32001.231438126728,4.0427260529477675e-05
-31965.86350112882,4.047519612545428e-05
-31930.49556413092,4.052740504023081e-05
-31895.127627133017,4.0574562634413846e-05
-31859.759690135113,4.061838217230651e-05
-31824.391753137214,4.0658022536318165e-05
-31789.023816139306,4.069422734662334e-05
-31753.655879141406,4.073233635116966e-05
-31718.287942143503,4.077315375763398e-05
-31682.9200051456,4.081236468649055e-05
-31647.5520681477,4.085190915819655e-05
-31612.184131149792,4.0898385257566145e-05
-31576.816194151892,4.094405962380567e-05
-31541.44825715399,4.0988382641702755e-05
-31506.080320156085,4.103416187295734e-05
-31470.712383158185,4.107878839506351e-05
-31435.344446160278,4.1122944082361004e-05
-31399.976509162378,4.116795439520483e-05
-31364.608572164474,4.120994089340977e-05
-31329.24063516657,4.125166293578235e-05
-31293.87269816867,4.129555632079209e-05
-31258.504761170763,4.133586369114533e-05
-31223.136824172863,4.1379843855657326e-05
-31187.76888717496,4.142732171881123e-05
-31152.400950177056,4.14739731751759e-05
-31117.033013179156,4.152493470815377e-05
-31081.665076181253,4.15778514235517e-05
-31046.29713918335,4.162833815562163e-05
-31010.929202185445,4.167476216326637e-05
-30975.56126518754,4.172012659980919e-05
-30940.19332818964,4.17610619271831e-05
-30904.825391191738,4.179723319885989e-05
-30869.457454193835,4.18345654750097e-05
-30834.08951719593,4.187217594030435e-05
-30798.721580198027,4.190151044192789e-05
-30763.353643200127,4.192652651958619e-05
-30727.985706202224,4.195037173128546e-05
-30692.61776920432,4.196888049365959e-05
