grid,density
-47598.49165420188,1.112083487676711e-07
-47563.12371720398,1.2173974384367814e-07
-47527.75578020607,1.3215006499935684e-07
-47492.38784320817,1.4243931223470295e-07
-47457.01990621026,1.5260748554972083e-07
-47421.65196921236,1.6265458494440608e-07
-47386.28403221446,1.7258061041876098e-07
-47350.916095216555,1.823855619727875e-07
-47315.548158218655,1.9276600754818847e-07
-47280.18022122075,2.042786123100892e-07
-47244.81228422285,2.1694714981089289e-07
-47209.44434722495,2.301208560746736e-07
-47174.07641022704,2.4469358508957637e-07
-47138.70847322914,2.594853137820836e-07
-47103.34053623123,2.7409543159409826e-07
-47067.97259923333,2.885239385256143e-07
-47032.60466223543,3.0277083457663463e-07
-46997.236725237526,3.168361197471623e-07
-46961.868788239626,3.307197940371914e-07
-46926.50085124172,3.444218574467278e-07
-46891.13291424382,3.5858967255521634e-07
-46855.76497724592,3.745417871103642e-07
-46820.39704024801,3.9200945995724493e-07
-46785.02910325011,4.1077753947000084e-07
-46749.661166252205,4.2946227224763285e-07
-46714.293229254305,4.497013861632789e-07
-46678.925292256405,4.713517712730941e-07
-46643.5573552585,4.930059471545202e-07
-46608.1894182606,5.143776172218372e-07
-46572.82148126269,5.354667814750542e-07
-46537.45354426479,5.562734399141628e-07
-46502.08560726689,5.767975925391669e-07
-46466.71767026898,5.97039239350071e-07
-46431.34973327108,6.169983803468666e-07
-46395.981796273176,6.366750155295616e-07
-46360.613859275276,6.560691448981488e-07
-46325.245922277376,6.751807684526313e-07
-46289.87798527947,6.941915108469221e-07
-46254.51004828157,7.146932185137878e-07
-46219.14211128367,7.348922413798279e-07
-46183.77417428576,7.547885794450456e-07
-46148.40623728786,7.785722395613995e-07
-46113.038300289954,8.036909395312613e-07
-46077.670363292054,8.284464177401265e-07
-46042.30242629415,8.533490227398551e-07
-46006.93448929625,8.81286735545731e-07
-45971.56655229835,9.107770274812202e-07
-45936.19861530044,9.398443699546836e-07
-45900.83067830254,9.684879537069849e-07
-45865.46274130464,9.967077787381295e-07
-45830.09480430673,1.0245038450481235e-06
-45794.72686730883,1.052487629442427e-06
-45759.358930310926,1.0813868552592457e-06
-45723.990993313026,1.1107548813383242e-06
-45688.623056315126,1.1413585718040055e-06
-45653.25511931722,1.1728037139402354e-06
-45617.88718231932,1.2042250594287285e-06
-45582.51924532141,1.2369172151946038e-06
-45547.15130832351,1.270795777533798e-06
-45511.78337132561,1.3041496862182266e-06
-45476.415434327704,1.3369789412478971e-06
-45441.047497329804,1.3692835426227956e-06
-45405.6795603319,1.4010634903429356e-06
-45370.311623334,1.4331602856085459e-06
-45334.9436863361,1.4661289856272345e-06
-45299.57574933819,1.5002170868031905e-06
-45264.20781234029,1.5337401763509311e-06
-45228.83987534238,1.5686056825569735e-06
-45193.47193834448,1.6064554853987778e-06
-45158.10400134658,1.64603534132756e-06
-45122.736064348675,1.684969469681256e-06
-45087.368127350775,1.7232578704598478e-06
-45052.00019035287,1.7616173842853224e-06
-45016.63225335497,1.8005639222241041e-06
-44981.26431635707,1.8393036934995661e-06
-44945.89637935916,1.8790596270025465e-06
-44910.52844236126,1.920569416562596e-06
-44875.160505363354,1.962649090313107e-06
-44839.792568365454,2.004553976451633e-06
-44804.424631367554,2.0499471473619013e-06
-44769.05669436965,2.0956635336453238e-06
-44733.68875737175,2.1418664908001293e-06
-44698.32082037384,2.1879527675295556e-06
-44662.95288337594,2.233231884790104e-06
-44627.58494637804,2.2777038425817833e-06
-44592.21700938013,2.3213686409046e-06
-44556.84907238223,2.3642262797585395e-06
-44521.481135384325,2.4100663062161823e-06
-44486.113198386425,2.4586932841692648e-06
-44450.745261388525,2.509057286930609e-06
-44415.37732439062,2.563798909523467e-06
-44380.00938739272,2.622053510772198e-06
-44344.64145039481,2.6834460099966757e-06
-44309.27351339691,2.749397429593517e-06
-44273.90557639901,2.8159758625919245e-06
-44238.537639401104,2.882056066544874e-06
-44203.169702403204,2.948324920874357e-06
-44167.8017654053,3.018403536683043e-06
-44132.4338284074,3.092232920570102e-06
-44097.0658914095,3.1684305158901337e-06
-44061.69795441159,3.244822079017758e-06
-44026.33001741369,3.320548003754899e-06
-43990.96208041578,3.3955358937892492e-06
-43955.59414341788,3.4760573092814857e-06
-43920.22620641998,3.5598794050803954e-06
-43884.858269422075,3.650229304935461e-06
-43849.490332424175,3.7424663533939444e-06
-43814.12239542627,3.833149619874871e-06
-43778.75445842837,3.923375877942174e-06
-43743.38652143047,4.012897256668194e-06
-43708.01858443256,4.100844674429936e-06
-43672.65064743466,4.187909086131601e-06
-43637.28271043676,4.2753210153113745e-06
-43601.91477343885,4.3650962663596025e-06
-43566.54683644095,4.455761149503382e-06
-43531.178899443046,4.547308470456446e-06
-43495.810962445146,4.637237694286869e-06
-43460.44302544724,4.726712268599393e-06
-43425.07508844934,4.816904474979773e-06
-43389.70715145144,4.906723246722887e-06
-43354.33921445353,4.9974936328080345e-06
-43318.97127745563,5.092136535244253e-06
-43283.60334045773,5.194533872889621e-06
-43248.235403459825,5.300383992210693e-06
-43212.867466461925,5.410728339014445e-06
-43177.49952946402,5.5269522399769626e-06
-43142.13159246612,5.646644262986186e-06
-43106.76365546821,5.773387844139711e-06
-43071.39571847031,5.903050803945046e-06
-43036.02778147241,6.036049524826495e-06
-43000.6598444745,6.166646946288086e-06
-42965.2919074766,6.296414510740558e-06
-42929.9239704787,6.429371852698009e-06
-42894.556033480796,6.56246003995644e-06
-42859.188096482896,6.693046032861347e-06
-42823.82015948499,6.824485271844707e-06
-42788.45222248709,6.962975141763446e-06
-42753.08428548918,7.0999560883611864e-06
-42717.71634849128,7.23683341072562e-06
-42682.34841149338,7.374728837553582e-06
-42646.980474495474,7.515048578373225e-06
-42611.612537497575,7.653136589512278e-06
-42576.244600499675,7.791381783958821e-06
-42540.87666350177,7.930291880165435e-06
-42505.50872650387,8.067268873412058e-06
-42470.14078950596,8.201995077144417e-06
-42434.77285250806,8.337189409070793e-06
-42399.40491551016,8.47216526490499e-06
-42364.03697851225,8.605474869517552e-06
-42328.66904151435,8.736783441629329e-06
-42293.301104516446,8.869031322582643e-06
-42257.933167518546,9.000603736427732e-06
-42222.565230520646,9.134632838333234e-06
-42187.19729352274,9.269887689332074e-06
-42151.82935652484,9.408435082209769e-06
-42116.46141952693,9.550115580945332e-06
-42081.09348252903,9.694940223986103e-06
-42045.72554553113,9.839706288981405e-06
-42010.357608533224,9.98240406417477e-06
-41974.989671535324,1.0124436815299733e-05
-41939.62173453742,1.0269394946796395e-05
-41904.25379753952,1.0412425555329351e-05
-41868.88586054162,1.0553776330673587e-05
-41833.51792354371,1.0694827620340517e-05
-41798.14998654581,1.0835606798009536e-05
-41762.7820495479,1.0974466431046297e-05
-41727.41411255,1.1113681668128635e-05
-41692.0461755521,1.1253180757527456e-05
-41656.678238554196,1.1394561297035423e-05
-41621.310301556296,1.1532656135749913e-05
-41585.94236455839,1.167226621868717e-05
-41550.57442756049,1.1813970524701653e-05
-41515.20649056259,1.195319162732847e-05
-41479.83855356468,1.2092069557325136e-05
-41444.47061656678,1.2231473588216903e-05
-41409.10267956888,1.2373586831828748e-05
-41373.734742570974,1.2519958172741159e-05
-41338.366805573074,1.2662430929294881e-05
-41302.99886857517,1.2802966298551227e-05
-41267.63093157727,1.294297661805504e-05
-41232.26299457936,1.3079381546697861e-05
-41196.89505758146,1.3214464108300288e-05
-41161.52712058356,1.334941598372404e-05
-41126.15918358565,1.3483345132056102e-05
-41090.79124658775,1.361976287461341e-05
-41055.42330958985,1.375630856319543e-05
-41020.055372591945,1.3893039759616286e-05
-40984.687435594045,1.4033440412986996e-05
-40949.31949859614,1.4176587247978162e-05
-40913.95156159824,1.4318513059880971e-05
-40878.58362460033,1.4461084051076318e-05
-40843.21568760243,1.4605495074238042e-05
-40807.84775060453,1.474786923012158e-05
-40772.479813606624,1.4890135193345015e-05
-40737.111876608724,1.5032752835660776e-05
-40701.743939610824,1.5175772383633812e-05
-40666.37600261292,1.5318960186917936e-05
-40631.00806561502,1.5463552597033844e-05
-40595.64012861711,1.5606015827839716e-05
-40560.27219161921,1.574972682428169e-05
-40524.9042546213,1.5896866548166063e-05
-40489.5363176234,1.6047878679462823e-05
-40454.1683806255,1.62085542592814e-05
-40418.800443627595,1.637299384323888e-05
-40383.432506629695,1.6536631866467283e-05
-40348.064569631795,1.6700662366135257e-05
-40312.69663263389,1.6867523306188696e-05
-40277.32869563599,1.703671437957246e-05
-40241.96075863808,1.720227117982367e-05
-40206.59282164018,1.7364894605978115e-05
-40171.22488464227,1.753383940931932e-05
-40135.85694764437,1.770731583191985e-05
-40100.48901064647,1.788292021132986e-05
-40065.12107364857,1.8058539085499587e-05
-40029.75313665067,1.823601616979866e-05
-39994.38519965277,1.8419859127589322e-05
-39959.01726265486,1.8609140678821176e-05
-39923.64932565696,1.8797174882606277e-05
-39888.28138865905,1.898786964672708e-05
-39852.91345166115,1.9176841904536975e-05
-39817.545514663245,1.936830538807319e-05
-39782.177577665345,1.9562349972271168e-05
-39746.809640667445,1.9756193895240245e-05
-39711.44170366954,1.9947135911855237e-05
-39676.07376667164,2.013298236893735e-05
-39640.70582967374,2.0315844859379357e-05
-39605.33789267583,2.0498947159785084e-05
-39569.96995567793,2.0680613779508774e-05
-39534.60201868002,2.0863452870381312e-05
-39499.23408168212,2.104583139405885e-05
-39463.86614468422,2.1229430980696355e-05
-39428.498207686316,2.1412116780591857e-05
-39393.130270688416,2.1592385602818836e-05
-39357.76233369051,2.177462317257889e-05
-39322.39439669261,2.195205251797872e-05
-39287.02645969471,2.212906990148702e-05
-39251.6585226968,2.231264479699919e-05
-39216.2905856989,2.2496089908862706e-05
-39180.922648701,2.267858765048942e-05
-39145.554711703095,2.285913057322714e-05
-39110.18677470519,2.3043207589202802e-05
-39074.81883770729,2.3226877189007945e-05
-39039.45090070939,2.3410808369337622e-05
-39004.08296371148,2.359316962035653e-05
-38968.71502671358,2.3774217740432286e-05
-38933.34708971568,2.3955786640686435e-05
-38897.97915271777,2.4136785727162564e-05
-38862.61121571987,2.4319502655257558e-05
-38827.24327872197,2.4502132334135265e-05
-38791.875341724066,2.468166366882765e-05
-38756.507404726166,2.4858594210642206e-05
-38721.13946772826,2.5034113778064418e-05
-38685.77153073036,2.5206942664640603e-05
-38650.40359373245,2.537927821622598e-05
-38615.03565673455,2.5553127499987687e-05
-38579.66771973665,2.572397594443644e-05
-38544.299782738744,2.5891460106511254e-05
-38508.931845740844,2.6060359242615213e-05
-38473.563908742944,2.6228497734235877e-05
-38438.19597174504,2.6395858021744272e-05
-38402.82803474714,2.6563367264371827e-05
-38367.46009774923,2.672733250870112e-05
-38332.09216075133,2.688924232350864e-05
-38296.72422375342,2.705240642402516e-05
-38261.35628675552,2.72150561398384e-05
-38225.98834975762,2.737766895081782e-05
-38190.620412759716,2.7541278567348157e-05
-38155.252475761816,2.7700909819365096e-05
-38119.884538763916,2.7860067972024914e-05
-38084.51660176601,2.801986659042699e-05
-38049.14866476811,2.8177838072188468e-05
-38013.7807277702,2.834018804475865e-05
-37978.4127907723,2.8508218567553937e-05
-37943.044853774394,2.8675328794921203e-05
-37907.676916776494,2.8840214497709872e-05
-37872.308979778594,2.9003871396420024e-05
-37836.94104278069,2.9163020689353485e-05
-37801.57310578279,2.9314491514548836e-05
-37766.20516878489,2.946040255043984e-05
-37730.83723178698,2.960249614929783e-05
-37695.46929478908,2.9738646053891142e-05
-37660.10135779117,2.986939160876914e-05
-37624.73342079327,2.9999416077588445e-05
-37589.365483795365,3.0126971570286916e-05
-37553.997546797465,3.025187003368043e-05
-37518.629609799566,3.0382036312068693e-05
-37483.26167280166,3.0511698984811627e-05
-37447.89373580376,3.063945267331966e-05
-37412.52579880586,3.076880825911359e-05
-37377.15786180795,3.089625885025653e-05
-37341.78992481005,3.1021690117701084e-05
-37306.421987812144,3.1143481432772835e-05
-37271.054050814244,3.126400209890346e-05
-37235.68611381634,3.1384465714890754e-05
-37200.31817681844,3.150310696946505e-05
-37164.95023982054,3.1617078804740856e-05
-37129.58230282263,3.172428588386443e-05
-37094.21436582473,3.1826054449657785e-05
-37058.84642882683,3.19316640598313e-05
-37023.47849182892,3.2037568701927434e-05
-36988.11055483102,3.214530936941043e-05
-36952.742617833115,3.2251277555904285e-05
-36917.374680835215,3.235709150295647e-05
-36882.00674383731,3.2459147607659394e-05
-36846.63880683941,3.255407851774889e-05
-36811.27086984151,3.264516217179728e-05
-36775.9029328436,3.273619469609822e-05
-36740.5349958457,3.282446581027049e-05
-36705.1670588478,3.291394419213376e-05
-36669.799121849894,3.299972461646837e-05
-36634.431184851994,3.308338468588741e-05
-36599.063247854094,3.316287446084875e-05
-36563.69531085619,3.32344796310237e-05
-36528.32737385828,3.330450574496413e-05
-36492.95943686038,3.3369133502351215e-05
-36457.59149986248,3.343053568636854e-05
-36422.22356286457,3.348957215817737e-05
-36386.85562586667,3.355111492045386e-05
-36351.48768886877,3.36100154262355e-05
-36316.119751870865,3.36784504508098e-05
-36280.751814872965,3.375317930814001e-05
-36245.383877875065,3.3830664629964494e-05
-36210.01594087716,3.3914384585118696e-05
-36174.64800387925,3.3994433904938184e-05
-36139.28006688135,3.407470766817965e-05
-36103.91212988345,3.41511870983748e-05
-36068.54419288554,3.4226171881800074e-05
-36033.17625588764,3.4301223042191124e-05
-35997.80831888974,3.4376152212604125e-05
-35962.440381891836,3.44465079467219e-05
-35927.072444893936,3.451722218399989e-05
-35891.70450789604,3.45970283618024e-05
-35856.33657089813,3.467573649507304e-05
-35820.96863390023,3.475655571096911e-05
-35785.60069690232,3.4839811572666475e-05
-35750.23275990442,3.492043639967434e-05
-35714.864822906515,3.499747076958419e-05
-35679.496885908615,3.507229819387032e-05
-35644.128948910715,3.514617791435848e-05
-35608.76101191281,3.5215335626680494e-05
-35573.39307491491,3.528228742721758e-05
-35538.02513791701,3.534903043382092e-05
-35502.6572009191,3.541230967804058e-05
-35467.2892639212,3.5473413409493024e-05
-35431.92132692329,3.552949704399723e-05
-35396.55338992539,3.558521572317732e-05
-35361.185452927486,3.5638723122069995e-05
-35325.817515929586,3.5695854867242244e-05
-35290.449578931686,3.575497843928556e-05
-35255.08164193378,3.5818516975058264e-05
-35219.71370493588,3.588770323707769e-05
-35184.34576793798,3.596419820671355e-05
-35148.97783094007,3.603811640950436e-05
-35113.60989394217,3.610767640977637e-05
-35078.241956944265,3.617960265369177e-05
-35042.874019946365,3.625849464342877e-05
-35007.50608294846,3.6346165799867224e-05
-34972.13814595056,3.643257416805585e-05
-34936.77020895266,3.651952817243118e-05
-34901.40227195475,3.660553084075729e-05
-34866.03433495685,3.668975875784e-05
-34830.66639795895,3.6770288224002094e-05
-34795.29846096104,3.684787931994203e-05
-34759.93052396314,3.6925109740031186e-05
-34724.562586965236,3.6998123446675205e-05
-34689.194649967336,3.706984921107111e-05
-34653.82671296943,3.7144379147407543e-05
-34618.45877597153,3.721697091474159e-05
-34583.09083897363,3.728672521668509e-05
-34547.72290197572,3.735204185970305e-05
-34512.35496497782,3.742136352887569e-05
-34476.98702797992,3.749366393300496e-05
-34441.619090982014,3.756402470705196e-05
-34406.251153984114,3.763292703863382e-05
-34370.88321698621,3.7697709101320964e-05
-34335.51527998831,3.775802862082311e-05
-34300.1473429904,3.7815571283087144e-05
-34264.7794059925,3.787222600091563e-05
-34229.4114689946,3.792777336444746e-05
-34194.04353199669,3.7985283867653894e-05
-34158.67559499879,3.80365840572957e-05
-34123.30765800089,3.80845273890654e-05
-34087.939721002986,3.813362790658509e-05
-34052.571784005086,3.817976274381548e-05
-34017.203847007186,3.822218018156713e-05
-33981.83591000928,3.826257410436518e-05
-33946.46797301137,3.830252029387762e-05
-33911.10003601347,3.834066300091815e-05
-33875.73209901557,3.837302929329355e-05
-33840.364162017664,3.839988396349562e-05
-33804.996225019764,3.8424271420470656e-05
-33769.628288021864,3.8444853537444194e-05
-33734.26035102396,3.8466615952722096e-05
-33698.89241402606,3.848500779118023e-05
-33663.52447702816,3.850032915988092e-05
-33628.15654003025,3.8522776409615454e-05
-33592.78860303234,3.854694872369763e-05
-33557.42066603444,3.858397828400952e-05
-33522.05272903654,3.862287559478848e-05
-33486.684792038635,3.866138690826296e-05
-33451.316855040735,3.8700525879132665e-05
-33415.948918042835,3.874167834477809e-05
-33380.58098104493,3.878790374733848e-05
-33345.21304404703,3.8825042673496655e-05
-33309.84510704913,3.8854138541294225e-05
-33274.47717005122,3.888332094614982e-05
-33239.10923305332,3.8918192841355036e-05
-33203.741296055414,3.8956140710184e-05
-33168.373359057514,3.899412525875473e-05
-33133.00542205961,3.903573980088965e-05
-33097.63748506171,3.908251742873257e-05
-33062.26954806381,3.913237685369316e-05
-33026.9016110659,3.9184884847710744e-05
-32991.533674068,3.9235360485169804e-05
-32956.1657370701,3.928202150607165e-05
-32920.79780007219,3.933581876840373e-05
-32885.42986307429,3.938901854568312e-05
-32850.061926076385,3.9439756452164023e-05
-32814.693989078485,3.948469609777363e-05
-32779.32605208058,3.952037342657875e-05
-32743.958115082678,3.9552576539823603e-05
-32708.590178084778,3.958675654876514e-05
-32673.22224108687,3.962659545835427e-05
-32637.85430408897,3.96673890405268e-05
-32602.486367091067,3.9706038101391294e-05
-32567.118430093164,3.975280849013198e-05
-32531.750493095264,3.980098462892722e-05
-32496.382556097356,3.9848795435047e-05
-32461.014619099456,3.989516096896831e-05
-32425.646682101553,3.993355943017903e-05
-32390.27874510365,3.9968306650329574e-05
-32354.91080810575,4.000412134871933e-05
-32319.542871107842,4.003912813974264e-05
-32284.174934109942,4.0075677952754453e-05
-32248.80699711204,4.0113903964888255e-05
-32213.439060114135,4.015398681888481e-05
-32178.071123116235,4.019541732118612e-05
-32142.703186118328,4.024167715571599e-05
-32107.335249120428,4.028984454160816e-05
-32071.967312122524,4.033548242861859e-05
-32036.59937512462,4.0382140966536676e-05
-32001.23143812672,4.04272605294777e-05
-31965.863501128813,4.0475196125454244e-05
-31930.495564130913,4.0527405040230766e-05
-31895.12762713301,4.0574562634413846e-05
-31859.759690135106,4.061838217230653e-05
-31824.391753137206,4.0658022536318165e-05
-31789.0238161393,4.0694227346623325e-05
-31753.6558791414,4.073233635116966e-05
-31718.287942143495,4.077315375763395e-05
-31682.920005145592,4.081236468649055e-05
-31647.552068147692,4.085190915819655e-05
-31612.184131149785,4.0898385257566145e-05
-31576.816194151885,4.09440596238057e-05
-31541.44825715398,4.0988382641702775e-05
-31506.080320156078,4.103416187295737e-05
-31470.712383158178,4.1078788395063544e-05
-31435.34444616027,4.1122944082361004e-05
-31399.97650916237,4.1167954395204855e-05
-31364.608572164467,4.1209940893409766e-05
-31329.240635166563,4.1251662935782376e-05
-31293.872698168663,4.1295556320792103e-05
-31258.504761170756,4.1335863691145373e-05
-31223.136824172856,4.1379843855657326e-05
-31187.768887174952,4.142732171881127e-05
-31152.40095017705,4.1473973175175896e-05
-31117.03301317915,4.1524934708153756e-05
-31081.665076181245,4.157785142355173e-05
-31046.29713918334,4.1628338155621657e-05
-31010.929202185438,4.167476216326637e-05
-30975.561265187534,4.1720126599809216e-05
-30940.193328189634,4.1761061927183124e-05
-30904.82539119173,4.1797233198859914e-05
-30869.457454193827,4.18345654750097e-05
-30834.089517195924,4.187217594030437e-05
-30798.72158019802,4.190151044192789e-05
-30763.35364320012,4.1926526519586216e-05
-30727.985706202217,4.1950371731285425e-05
-30692.617769204313,4.196888049365956e-05
-30657.24983220641,4.198626371425192e-05
