grid,density
-13548.987602044988,2.202267705579562e-09
-13511.487418054157,6.682907285548223e-09
-13473.987234063326,1.1109633125400446e-08
-13436.487050072494,1.5482445225136403e-08
-13398.986866081663,1.98013435847557e-08
-13361.486682090832,2.4066328204258538e-08
-13323.986498100001,2.8277399083644888e-08
-13286.48631410917,3.358834216764221e-08
-13248.98613011834,3.993129613275969e-08
-13211.485946127506,4.619337948770277e-08
-13173.985762136675,5.237459223247088e-08
-13136.485578145845,5.847493436706427e-08
-13098.985394155014,6.449440589148296e-08
-13061.485210164183,7.043300680572698e-08
-13023.985026173352,7.654680409024995e-08
-12986.484842182519,8.457408907081736e-08
-12948.984658191688,9.314525809893063e-08
-12911.484474200857,1.0320259745482453e-07
-12873.984290210026,1.1483975265159917e-07
-12836.484106219195,1.2686051434210824e-07
-12798.983922228364,1.3871953481226793e-07
-12761.483738237532,1.5041681406207884e-07
-12723.9835542467,1.619523520915397e-07
-12686.48337025587,1.7332614890065123e-07
-12648.983186265039,1.8453820448941337e-07
-12611.483002274208,1.9558851885782607e-07
-12573.982818283377,2.064770920058894e-07
-12536.482634292544,2.1720392393360395e-07
-12498.982450301713,2.2776901464096855e-07
-12461.482266310883,2.381723641279837e-07
-12423.982082320052,2.4841397239464953e-07
-12386.48189832922,2.5849383944096597e-07
-12348.981714338388,2.684119652669335e-07
-12311.481530347557,2.781683498725511e-07
-12273.981346356726,2.885747004000747e-07
-12236.481162365895,3.002514020087051e-07
-12198.980978375064,3.11739405526928e-07
-12161.480794384233,3.2303871095474334e-07
-12123.980610393402,3.3414931829215095e-07
-12086.48042640257,3.450712275391515e-07
-12048.980242411739,3.5580443869574386e-07
-12011.480058420908,3.6715670334471876e-07
-11973.979874430077,3.809310472111148e-07
-11936.479690439246,3.955545144595464e-07
-11898.979506448413,4.099353698774545e-07
-11861.479322457582,4.240736134648378e-07
-11823.979138466751,4.379692452216971e-07
-11786.47895447592,4.5162226514803216e-07
-11748.97877048509,4.6503267324384335e-07
-11711.478586494259,4.782004695091304e-07
-11673.978402503426,4.91125653943894e-07
-11636.478218512595,5.038082265481327e-07
-11598.978034521764,5.162481873218474e-07
-11561.477850530933,5.284455362650381e-07
-11523.977666540102,5.404002733777049e-07
-11486.477482549271,5.521123986598473e-07
-11448.977298558439,5.635819121114665e-07
-11411.477114567608,5.762024794660488e-07
-11373.976930576777,5.917490594880347e-07
-11336.476746585946,6.091797819508245e-07
-11298.976562595115,6.262870219729158e-07
-11261.476378604282,6.431643468566439e-07
-11223.976194613451,6.6187698138231e-07
-11186.47601062262,6.802391765972189e-07
-11148.97582663179,6.982509325013708e-07
-11111.475642640959,7.159122490947659e-07
-11073.975458650128,7.339552933140124e-07
-11036.475274659297,7.554139564351222e-07
-10998.975090668464,7.779919257123358e-07
-10961.474906677633,8.034288040585209e-07
-10923.974722686802,8.304558493913359e-07
-10886.474538695971,8.591533200624434e-07
-10848.97435470514,8.887377379428462e-07
-10811.474170714308,9.186476209649257e-07
-10773.973986723477,9.480183665858396e-07
-10736.473802732646,9.787932833951046e-07
-10698.973618741815,1.009344187535276e-06
-10661.473434750984,1.0415539460865237e-06
-10623.973250760151,1.073170653496492e-06
-10586.473066769322,1.1064226986759222e-06
-10548.97288277849,1.1390801210651119e-06
-10511.472698787658,1.1713328193354433e-06
-10473.972514796827,1.205001136551022e-06
-10436.472330805997,1.2402447207029419e-06
-10398.972146815166,1.2783527072128005e-06
-10361.471962824333,1.3175462164129053e-06
-10323.971778833502,1.361624701296493e-06
-10286.471594842671,1.408843818687649e-06
-10248.97141085184,1.4561097914792266e-06
-10211.47122686101,1.5040757245452757e-06
-10173.971042870176,1.5520486846249146e-06
-10136.470858879346,1.603062542040877e-06
-10098.970674888515,1.6535141472257526e-06
-10061.470490897684,1.703986442680893e-06
-10023.970306906853,1.7549392706216208e-06
-9986.470122916022,1.8089754575187835e-06
-9948.969938925191,1.8622961259119588e-06
-9911.469754934358,1.9200248419767887e-06
-9873.969570943527,1.981682159350266e-06
-9836.469386952696,2.043007243230039e-06
-9798.969202961865,2.1041942793611975e-06
-9761.469018971035,2.165505864171027e-06
-9723.968834980202,2.2282926866824026e-06
-9686.46865098937,2.2924696324801546e-06
-9648.96846699854,2.356822725399893e-06
-9611.468283007709,2.4205572352566893e-06
-9573.968099016878,2.485141533519709e-06
-9536.467915026045,2.5553723589435532e-06
-9498.967731035216,2.62595424725816e-06
-9461.467547044384,2.697846284126599e-06
-9423.967363053553,2.7704377839507874e-06
-9386.467179062722,2.845992305599683e-06
-9348.96699507189,2.9240914048773646e-06
-9311.46681108106,3.003712123447324e-06
-9273.966627090227,3.091178599911967e-06
-9236.466443099396,3.1799939878489006e-06
-9198.966259108565,3.2694937455807015e-06
-9161.466075117734,3.3617698547954366e-06
-9123.965891126903,3.458118718131241e-06
-9086.46570713607,3.5545747975827915e-06
-9048.965523145242,3.6567142445107995e-06
-9011.465339154409,3.761260025258724e-06
-8973.965155163578,3.865856518059282e-06
-8936.464971172747,3.972444242696471e-06
-8898.964787181914,4.082133313611014e-06
-8861.464603191085,4.189697890026567e-06
-8823.964419200252,4.2950520030973565e-06
-8786.464235209422,4.398308998695161e-06
-8748.96405121859,4.505689246300282e-06
-8711.46386722776,4.614956492487322e-06
-8673.963683236929,4.724372673509478e-06
-8636.463499246096,4.834743856835393e-06
-8598.963315255267,4.948604662390161e-06
-8561.463131264434,5.062447985947959e-06
-8523.962947273603,5.176351686925368e-06
-8486.462763282772,5.2911245254563474e-06
-8448.96257929194,5.406629710354947e-06
-8411.46239530111,5.521499381770732e-06
-8373.962211310278,5.635011240388655e-06
-8336.462027319447,5.75175174851498e-06
-8298.961843328616,5.868844718749975e-06
-8261.461659337785,5.984191074072747e-06
-8223.961475346954,6.0967608717795175e-06
-8186.461291356122,6.210738996514545e-06
-8148.96110736529,6.326805258987797e-06
-8111.4609233744595,6.443732610505554e-06
-8073.960739383629,6.560658134607559e-06
-8036.460555392797,6.678202563729447e-06
-7998.960371401966,6.797367823102339e-06
-7961.460187411135,6.914885838840715e-06
-7923.960003420303,7.0370432897778875e-06
-7886.459819429472,7.162681481423925e-06
-7848.959635438641,7.2891119034393635e-06
-7811.459451447809,7.415743135387755e-06
-7773.9592674569785,7.545499188131767e-06
-7736.459083466148,7.674477665312069e-06
-7698.958899475316,7.803926111878681e-06
-7661.458715484485,7.938118250427106e-06
-7623.958531493654,8.078585259645963e-06
-7586.458347502822,8.220819841561432e-06
-7548.958163511991,8.364059378876494e-06
-7511.45797952116,8.505725303621442e-06
-7473.957795530328,8.6449172866033e-06
-7436.4576115394975,8.786669722569967e-06
-7398.957427548667,8.931470924452047e-06
-7361.457243557835,9.076807580058078e-06
-7323.957059567004,9.21973289728373e-06
-7286.456875576173,9.362316089528972e-06
-7248.956691585341,9.503524995469366e-06
-7211.45650759451,9.645769441950406e-06
-7173.956323603679,9.788399316351325e-06
-7136.456139612847,9.933773420916812e-06
-7098.9559556220165,1.0078951402828567e-05
-7061.455771631186,1.0224792581951939e-05
-7023.955587640354,1.036832397207121e-05
-6986.455403649523,1.0508160247651103e-05
-6948.955219658692,1.0645138827995084e-05
-6911.45503566786,1.0780461740456185e-05
-6873.954851677029,1.0913126599269744e-05
-6836.454667686197,1.1041343574523703e-05
-6798.954483695366,1.116796807368662e-05
-6761.4542997045355,1.1292507456916473e-05
-6723.954115713704,1.1414044322036836e-05
-6686.453931722873,1.1535028098468285e-05
-6648.953747732042,1.165639163920515e-05
-6611.45356374121,1.177787277572394e-05
-6573.953379750379,1.1899584981185634e-05
-6536.453195759548,1.2020104694463273e-05
-6498.953011768716,1.2138645938780006e-05
-6461.452827777885,1.2252943941297447e-05
-6423.9526437870545,1.2366302805810267e-05
-6386.452459796223,1.247882797709981e-05
-6348.952275805392,1.2588013920433429e-05
-6311.452091814561,1.2692605570134909e-05
-6273.951907823729,1.2794500147167952e-05
-6236.451723832898,1.289601896355932e-05
-6198.951539842067,1.299727801909653e-05
-6161.451355851235,1.3093630924283146e-05
-6123.951171860404,1.3187461159234419e-05
-6086.4509878695735,1.3278807587653457e-05
-6048.950803878742,1.3369568485576263e-05
-6011.450619887911,1.346056081945014e-05
-5973.95043589708,1.3551220323594819e-05
-5936.450251906248,1.3641721218521322e-05
-5898.950067915417,1.3727721371552537e-05
-5861.449883924586,1.3810775745279332e-05
-5823.949699933754,1.3890959044408187e-05
-5786.449515942923,1.396686015512622e-05
-5748.949331952092,1.4039830388879478e-05
-5711.449147961261,1.4114986617352106e-05
-5673.94896397043,1.4197723958532523e-05
-5636.448779979598,1.4280866251326316e-05
-5598.948595988767,1.4360890348856323e-05
-5561.448411997936,1.4437621242359314e-05
-5523.948228007104,1.4512218618178606e-05
-5486.448044016273,1.4585674778465487e-05
-5448.947860025442,1.4657948035054046e-05
-5411.447676034611,1.4732198676833844e-05
-5373.94749204378,1.4806057036766303e-05
-5336.447308052948,1.4876121158002577e-05
-5298.947124062117,1.4944461539849699e-05
-5261.446940071286,1.501316874073289e-05
-5223.946756080455,1.5083284398093045e-05
-5186.446572089624,1.5155093559853922e-05
-5148.946388098793,1.5222995434957979e-05
-5111.4462041079605,1.5289073948769514e-05
-5073.94602011713,1.535306166432614e-05
-5036.445836126299,1.541789691201059e-05
-4998.945652135468,1.5480860890597668e-05
-4961.445468144637,1.5544705886620666e-05
-4923.945284153804,1.5608246583589624e-05
-4886.445100162973,1.56679806906436e-05
-4848.944916172142,1.572424061647796e-05
-4811.444732181311,1.5777933285670966e-05
-4773.94454819048,1.5832262018677422e-05
-4736.4443641996495,1.5884823772431002e-05
-4698.944180208817,1.5935776386592473e-05
-4661.443996217986,1.598556657439314e-05
-4623.943812227155,1.6035913131260927e-05
-4586.443628236324,1.6086621191634306e-05
-4548.943444245493,1.6132718798908755e-05
-4511.443260254662,1.617519963479331e-05
-4473.943076263829,1.6211129951253708e-05
-4436.4428922729985,1.62432296760193e-05
-4398.942708282168,1.6274975351757808e-05
-4361.442524291337,1.6313295229297963e-05
-4323.942340300506,1.635079148005235e-05
-4286.442156309675,1.6387174042841554e-05
-4248.941972318842,1.6421947718406544e-05
-4211.441788328011,1.645644344621342e-05
-4173.94160433718,1.6493616655628073e-05
-4136.441420346349,1.652883933603863e-05
-4098.941236355518,1.656106134088155e-05
-4061.4410523646875,1.6591445688440117e-05
-4023.9408683738548,1.662522232802241e-05
-3986.440684383024,1.6663412137110246e-05
-3948.940500392193,1.670068715536841e-05
-3911.440316401362,1.673663001560657e-05
-3873.940132410531,1.6770712698068093e-05
-3836.4399484196983,1.6807774191109414e-05
-3798.9397644288674,1.6841035451445663e-05
-3761.4395804380365,1.686856124388006e-05
-3723.9393964472056,1.689472893030479e-05
-3686.4392124563747,1.6923765372575936e-05
-3648.9390284655437,1.6956381413317754e-05
-3611.438844474711,1.698702542427217e-05
-3573.93866048388,1.701931321640036e-05
-3536.438476493049,1.7049740930668347e-05
-3498.9382925022182,1.7073428276319852e-05
-3461.4381085113873,1.709327945177756e-05
-3423.9379245205564,1.7110457136908575e-05
-3386.4377405297237,1.712740961426781e-05
-3348.9375565388927,1.7139944263623384e-05
-3311.437372548062,1.7149216639683746e-05
-3273.937188557231,1.7155176902574926e-05
-3236.4370045664,1.7164763659592234e-05
-3198.936820575569,1.7176332392204353e-05
-3161.4366365847363,1.7184599130213987e-05
-3123.9364525939054,1.719388426859742e-05
-3086.4362686030745,1.7204286830494187e-05
-3048.9360846122436,1.721638279185063e-05
-3011.4359006214127,1.723311415935451e-05
-2973.9357166305817,1.7255801820856256e-05
-2936.435532639749,1.727557781023924e-05
-2898.935348648918,1.729148990819807e-05
-2861.435164658087,1.7311041211156877e-05
-2823.9349806672562,1.7337833552499976e-05
-2786.4347966764253,1.736567112208861e-05
-2748.9346126855926,1.7395190939417626e-05
-2711.4344286947617,1.742452783312898e-05
-2673.9342447039307,1.7451148094747765e-05
-2636.4340607131,1.7475464775726374e-05
-2598.933876722269,1.7502164893537704e-05
-2561.433692731438,1.752685670694816e-05
-2523.9335087406052,1.754681275525071e-05
-2486.4333247497743,1.7562668724573714e-05
-2448.9331407589434,1.7578906040349324e-05
-2411.4329567681125,1.759422518479607e-05
-2373.9327727772816,1.760754685973474e-05
-2336.4325887864507,1.761791622177109e-05
-2298.932404795618,1.7628350413402313e-05
-2261.432220804787,1.7643221438842974e-05
-2223.932036813956,1.765639875475865e-05
-2186.431852823125,1.7672267231581478e-05
-2148.9316688322942,1.7689218100613656e-05
-2111.4314848414633,1.7706585622566292e-05
-2073.9313008506306,1.7721038526189477e-05
-2036.4311168597997,1.774004009239028e-05
-1998.9309328689687,1.775870519757173e-05
-1961.4307488781378,1.777280229439193e-05
-1923.930564887307,1.778316273398314e-05
-1886.430380896476,1.779426512976446e-05
-1848.9301969056432,1.7807198687652682e-05
-1811.4300129148123,1.781791223199463e-05
-1773.9298289239814,1.7829466688651437e-05
-1736.4296449331505,1.783876006423468e-05
-1698.9294609423196,1.7845060626484636e-05
-1661.4292769514886,1.7847446063446824e-05
-1623.929092960656,1.785113979758147e-05
-1586.428908969825,1.7859309828245707e-05
-1548.928724978994,1.7870804925095954e-05
-1511.4285409881631,1.7881746579048793e-05
-1473.9283569973322,1.7896456622459556e-05
-1436.4281730064995,1.7912317274278692e-05
-1398.9279890156686,1.7928519182185282e-05
-1361.4278050248377,1.794780358322516e-05
-1323.9276210340067,1.7970999974862103e-05
-1286.4274370431758,1.8002615624931697e-05
-1248.927253052345,1.803745465827142e-05
-1211.4270690615122,1.80744489218758e-05
-1173.9268850706812,1.8106584448532453e-05
-1136.4267010798503,1.8138918706301895e-05
-1098.9265170890194,1.817454632155491e-05
-1061.4263330981885,1.8214841576599057e-05
-1023.9261491073576,1.825540488632901e-05
-986.4259651165248,1.8303624112172713e-05
-948.9257811256939,1.835040231485268e-05
-911.425597134863,1.8394342589262094e-05
-873.9254131440321,1.843696606478303e-05
-836.4252291532011,1.848696680127941e-05
-798.9250451623702,1.8543049453246553e-05
-761.4248611715375,1.8604756278482896e-05
-723.9246771807066,1.866472449518043e-05
-686.4244931898756,1.8717362397650006e-05
-648.9243091990447,1.8764452747716777e-05
-611.4241252082138,1.8806918782572565e-05
-573.9239412173829,1.8849147159347352e-05
-536.4237572265502,1.888543224849482e-05
-498.92357323571923,1.8921902222777158e-05
-461.4233892448883,1.896031285945799e-05
-423.9232052540574,1.8999357141804407e-05
-386.4230212632265,1.9036544293915303e-05
-348.92283727239555,1.907413630164259e-05
-311.4226532815628,1.911338479042544e-05
-273.9224692907319,1.915295676262685e-05
-236.42228529990098,1.9193550412555846e-05
-198.92210130907006,1.9239794092304794e-05
-161.42191731823914,1.9285928399764543e-05
-123.9217333274064,1.9334026457813586e-05
-86.42154933657548,1.9383220368233268e-05
-48.92136534574456,1.9435372931057694e-05
-11.421181354913642,1.9487398078813584e-05
26.079002635917277,1.953565326156083e-05
63.579186626748196,1.9586655184137573e-05
101.07937061758093,1.9638876675827575e-05
138.57955460841185,1.9693278034554387e-05
176.07973859924277,1.9751637815083078e-05
213.5799225900737,1.9806463512259526e-05
251.0801065809046,1.98622603241859e-05
288.58029057173553,1.9920092033018656e-05
326.08047456256827,1.9981542717372278e-05
363.5806585533992,2.0046274065449193e-05
401.0808425442301,2.0106113262576967e-05
438.581026535061,2.0164902480539304e-05
476.08121052589195,2.0222280616057515e-05
513.5813945167229,2.0279527715594462e-05
551.0815785075556,2.0335333005565693e-05
588.5817624983865,2.038819110015302e-05
626.0819464892174,2.0445896100687016e-05
663.5821304800484,2.0504535933925323e-05
701.0823144708793,2.057222067661664e-05
738.5824984617102,2.0648328287757726e-05
776.0826824525429,2.0720105626276187e-05
813.5828664433739,2.079397192175884e-05
851.0830504342048,2.0867233307247296e-05
888.5832344250357,2.0941783496743455e-05
926.0834184158666,2.1018383759008957e-05
963.5836024066994,2.10913612526229e-05
1001.0837863975303,2.1163732147633712e-05
1038.5839703883612,2.1242422446016442e-05
1076.0841543791921,2.1330937127763574e-05
1113.584338370023,2.141961122068432e-05
1151.084522360854,2.150669483068581e-05
1188.5847063516867,2.1597591836053845e-05
1226.0848903425176,2.168315286561759e-05
1263.5850743333485,2.1767495131235704e-05
1301.0852583241794,2.1852434402994455e-05
1338.5854423150104,2.1941895842503913e-05
1376.0856263058413,2.2035188547320807e-05
1413.585810296674,2.21315053532899e-05
1451.085994287505,2.222798493824909e-05
1488.5861782783359,2.232128221215601e-05
1526.0863622691668,2.2416741028441032e-05
1563.5865462599977,2.250315987790247e-05
1601.0867302508286,2.2585957177751005e-05
1638.5869142416614,2.2667904162048544e-05
1676.0870982324923,2.2747447101595958e-05
1713.5872822233232,2.2830292103592843e-05
1751.0874662141541,2.291393347108504e-05
1788.587650204985,2.3001669383204816e-05
1826.087834195816,2.308934495049468e-05
1863.5880181866487,2.31727207018139e-05
1901.0882021774796,2.326036719632458e-05
1938.5883861683105,2.336186022788125e-05
1976.0885701591415,2.3469532285704037e-05
2013.5887541499724,2.3577940720367467e-05
2051.088938140805,2.3684970628460323e-05
2088.589122131636,2.3796489718992233e-05
2126.089306122467,2.391213423568798e-05
2163.589490113298,2.4028755307895283e-05
2201.089674104129,2.41404149374337e-05
2238.5898580949597,2.4251271805634995e-05
2276.0900420857924,2.436257115785632e-05
2313.5902260766234,2.4480095044042643e-05
2351.0904100674543,2.459767243531749e-05
2388.590594058285,2.47219556517778e-05
2426.090778049116,2.4855966201813942e-05
2463.590962039947,2.499610719867813e-05
2501.09114603078,2.5137185584737976e-05
2538.5913300216107,2.5276715147521727e-05
2576.0915140124416,2.54167413869193e-05
2613.5916980032725,2.5559080322472656e-05
2651.0918819941035,2.5713992459501333e-05
2688.5920659849344,2.5873588701555594e-05
2726.092249975767,2.6031079509477556e-05
2763.592433966598,2.6192303578706247e-05
2801.092617957429,2.6354333155546924e-05
2838.59280194826,2.6516548261914162e-05
2876.0929859390926,2.6683084043385185e-05
2913.5931699299217,2.6851300072747626e-05
2951.0933539207545,2.7013939902589956e-05
2988.5935379115836,2.717441613898802e-05
3026.0937219024163,2.7332747292050576e-05
3063.593905893249,2.7489233130449228e-05
3101.094089884078,2.764674823730629e-05
3138.594273874911,2.780818631711227e-05
3176.09445786574,2.7972605189500858e-05
3213.5946418565727,2.8140605688057392e-05
3251.094825847402,2.8310701378775393e-05
3288.5950098382345,2.8487374935564743e-05
3326.0951938290673,2.866629279983272e-05
3363.5953778198964,2.884261661106119e-05
3401.095561810729,2.9016599763761846e-05
3438.595745801558,2.9200378426553628e-05
3476.095929792391,2.9393716829055256e-05
3513.5961137832237,2.958953048489808e-05
3551.096297774053,2.978319538962695e-05
3588.5964817648855,2.9970097248327e-05
3626.0966657557146,3.0157896936145432e-05
3663.5968497465474,3.034001807836492e-05
3701.09703373738,3.052384757650219e-05
3738.597217728209,3.071006819377843e-05
3776.097401719042,3.090147616836527e-05
3813.597585709871,3.109390637927701e-05
3851.097769700704,3.1290676043445244e-05
3888.597953691533,3.148765238117197e-05
3926.0981376823656,3.168494059180311e-05
3963.5983216731984,3.187503882120108e-05
4001.0985056640275,3.20690553398428e-05
4038.59868965486,3.226829977213653e-05
4076.0988736456893,3.2473637198050304e-05
4113.599057636522,3.267754729587962e-05
4151.099241627355,3.288311436690367e-05
4188.599425618184,3.309210497359605e-05
4226.099609609017,3.330351824761077e-05
4263.599793599846,3.351670283607431e-05
4301.0999775906785,3.372433902039329e-05
4338.600161581508,3.3935718238581565e-05
4376.10034557234,3.4147636919783716e-05
4413.600529563173,3.4360059557210986e-05
