grid,density
-66964.96200601968,5.283673898586142e-07
-66922.10949259455,5.639653616995514e-07
-66879.25697916943,6.006150796924958e-07
-66836.4044657443,6.377566008396358e-07
-66793.55195231916,6.749353129565027e-07
-66750.69943889404,7.129823650495762e-07
-66707.84692546891,7.532237495319545e-07
-66664.99441204379,7.965023533494395e-07
-66622.14189861866,8.414361708984237e-07
-66579.28938519354,8.874310623735152e-07
-66536.43687176841,9.332816339436121e-07
-66493.58435834329,9.818902256553721e-07
-66450.73184491815,1.031567489144516e-06
-66407.87933149302,1.0839858199756685e-06
-66365.0268180679,1.139220696842926e-06
-66322.17430464277,1.1952779505424268e-06
-66279.32179121765,1.2527198578566993e-06
-66236.46927779252,1.3114012677590475e-06
-66193.6167643674,1.3700013574835842e-06
-66150.76425094227,1.4295280334287757e-06
-66107.91173751713,1.4910648927093587e-06
-66065.05922409201,1.5528747477084346e-06
-66022.20671066688,1.6161401843198821e-06
-65979.35419724176,1.6808387569741506e-06
-65936.50168381663,1.74774735000824e-06
-65893.64917039151,1.8168070178986019e-06
-65850.79665696638,1.8876439188719099e-06
-65807.94414354124,1.95946059539432e-06
-65765.09163011612,2.0328987754936753e-06
-65722.239116691,2.1068877969060655e-06
-65679.38660326587,2.180062838895243e-06
-65636.53408984074,2.257072288824239e-06
-65593.68157641562,2.335528682555042e-06
-65550.8290629905,2.4152487243335822e-06
-65507.97654956536,2.4986929952662686e-06
-65465.12403614024,2.5843648401050195e-06
-65422.27152271511,2.670241586749247e-06
-65379.41900928998,2.7561323063112556e-06
-65336.566495864856,2.8445844091230954e-06
-65293.71398243973,2.93557940274402e-06
-65250.861469014606,3.027246969303119e-06
-65208.008955589474,3.1194771482619505e-06
-65165.15644216435,3.214770213684531e-06
-65122.303928739224,3.312915852407977e-06
-65079.45141531409,3.4135516710490355e-06
-65036.59890188897,3.5167772846198326e-06
-64993.74638846384,3.622379880435287e-06
-64950.89387503872,3.7290697556430175e-06
-64908.041361613585,3.835544005870015e-06
-64865.18884818846,3.941009501353791e-06
-64822.336334763335,4.048647067502061e-06
-64779.48382133821,4.1582988309626765e-06
-64736.63130791308,4.268830161971119e-06
-64693.77879448795,4.380313840522591e-06
-64650.92628106283,4.496959324286729e-06
-64608.0737676377,4.616540973636532e-06
-64565.22125421257,4.739092795143875e-06
-64522.368740787446,4.8615465332206005e-06
-64479.51622736232,4.985983419158056e-06
-64436.66371393719,5.111950115171444e-06
-64393.811200512064,5.2382252980550505e-06
-64350.95868708694,5.3664031002676e-06
-64308.106173661814,5.496759906517112e-06
-64265.25366023668,5.6327474190367575e-06
-64222.40114681156,5.775064340106072e-06
-64179.54863338643,5.919008189504865e-06
-64136.69611996131,6.06455758360005e-06
-64093.843606536175,6.209588060431578e-06
-64050.99109311105,6.355420467382687e-06
-64008.138579685925,6.504041923507886e-06
-63965.2860662608,6.654651444784421e-06
-63922.43355283567,6.805150346177922e-06
-63879.58103941054,6.956826379117327e-06
-63836.72852598542,7.107504790847736e-06
-63793.87601256029,7.25919010168025e-06
-63751.02349913516,7.412539277877855e-06
-63708.170985710036,7.56726273876094e-06
-63665.31847228491,7.726578275379672e-06
-63622.465958859786,7.88921664941041e-06
-63579.613445434654,8.053205786135266e-06
-63536.76093200953,8.217585989632331e-06
-63493.908418584404,8.380853185183374e-06
-63451.05590515927,8.544796334334274e-06
-63408.20339173415,8.710167868873846e-06
-63365.35087830902,8.876043733235174e-06
-63322.4983648839,9.040621799646697e-06
-63279.645851458765,9.206773288159332e-06
-63236.79333803364,9.373370214186152e-06
-63193.940824608515,9.541621208239299e-06
-63151.08831118339,9.709728525660429e-06
-63108.23579775826,9.877978269757148e-06
-63065.38328433313,1.0048426277729889e-05
-63022.53077090801,1.0220454272239332e-05
-62979.67825748288,1.0391365515962511e-05
-62936.82574405775,1.0562799742592984e-05
-62893.973230632626,1.0736812868803466e-05
-62851.1207172075,1.091120486766154e-05
-62808.26820378237,1.1085316204954047e-05
-62765.415690357244,1.1260739177483276e-05
-62722.56317693212,1.143855620330924e-05
-62679.710663506994,1.1615652079527927e-05
-62636.85815008187,1.179161547494423e-05
-62594.00563665674,1.196647513170373e-05
-62551.15312323161,1.2143018658993672e-05
-62508.30060980649,1.2319135949749908e-05
-62465.448096381355,1.2495666760431597e-05
-62422.59558295623,1.2676436288501422e-05
-62379.743069531105,1.2859834835926512e-05
-62336.89055610598,1.3044308005389493e-05
-62294.03804268085,1.3229637590596586e-05
-62251.18552925572,1.3414479606829875e-05
-62208.3330158306,1.360055443569483e-05
-62165.48050240547,1.378775611565789e-05
-62122.62798898034,1.3978675865976145e-05
-62079.775475555216,1.4171431616485969e-05
-62036.92296213009,1.4366270817460977e-05
-61994.070448704966,1.4561005970532747e-05
-61951.217935279834,1.4759105103453517e-05
-61908.36542185471,1.4956516375309066e-05
-61865.512908429584,1.5156200160236822e-05
-61822.66039500445,1.535639425098275e-05
-61779.80788157933,1.556022123222916e-05
-61736.9553681542,1.5763594931246226e-05
-61694.10285472908,1.5965467718398937e-05
-61651.250341303945,1.616559242037754e-05
-61608.39782787882,1.6364171338469266e-05
-61565.545314453695,1.656389249634718e-05
-61522.69280102857,1.6763278118987447e-05
-61479.84028760344,1.6961859430638366e-05
-61436.98777417831,1.7159038979562375e-05
-61394.13526075319,1.7354757808489578e-05
-61351.28274732806,1.7549710228345635e-05
-61308.43023390293,1.7745179177810257e-05
-61265.577720477806,1.7943317057054182e-05
-61222.72520705268,1.8140258941532186e-05
-61179.87269362755,1.8336438757303034e-05
-61137.020180202424,1.8528842047809138e-05
-61094.1676667773,1.8718394941029668e-05
-61051.315153352174,1.890679507824737e-05
-61008.46263992705,1.9094129788638896e-05
-60965.61012650192,1.928400964335578e-05
-60922.75761307679,1.9476337859473066e-05
-60879.90509965167,1.9668006261872753e-05
-60837.052586226535,1.9858678555478752e-05
-60794.20007280141,2.004770784429447e-05
-60751.347559376285,2.0236611879004232e-05
-60708.49504595116,2.0423074413341057e-05
-60665.64253252603,2.0608271275849836e-05
-60622.7900191009,2.079270379572364e-05
-60579.93750567578,2.097759638312986e-05
-60537.08499225065,2.1163621452443112e-05
-60494.23247882552,2.1348061301915383e-05
-60451.379965400396,2.153438684385081e-05
-60408.52745197527,2.171772690646055e-05
-60365.674938550146,2.1898411392825265e-05
-60322.822425125014,2.2075054777232207e-05
-60279.96991169989,2.2249058760129558e-05
-60237.117398274764,2.242273427818126e-05
-60194.26488484963,2.2594755471187802e-05
-60151.41237142451,2.2766500992371935e-05
-60108.55985799938,2.293793587134719e-05
-60065.70734457426,2.3108323818741962e-05
-60022.85483114913,2.328048104326957e-05
-59980.002317724,2.3452296819802916e-05
-59937.149804298875,2.3622234382855303e-05
-59894.29729087375,2.3791207897219245e-05
-59851.44477744862,2.3959411031035948e-05
-59808.59226402349,2.4128696919785705e-05
-59765.73975059837,2.4294622769626143e-05
-59722.88723717324,2.446037671908248e-05
-59680.03472374811,2.46260370320211e-05
-59637.182210322986,2.4790671496163942e-05
-59594.32969689786,2.4954365954279963e-05
-59551.47718347273,2.5114218014533744e-05
-59508.624670047604,2.526981113266488e-05
-59465.77215662248,2.5421616968573015e-05
-59422.919643197354,2.5572058357613885e-05
-59380.06712977223,2.572326143105824e-05
-59337.2146163471,2.587187637854224e-05
-59294.36210292197,2.6015914884100123e-05
-59251.50958949685,2.6156795523823507e-05
-59208.657076071715,2.629808191160667e-05
-59165.80456264659,2.6443085621773456e-05
-59122.952049221465,2.659120569405664e-05
-59080.09953579634,2.673872387068249e-05
-59037.24702237121,2.688307802932907e-05
-58994.39450894608,2.7023556481966744e-05
-58951.54199552096,2.7160151569349866e-05
-58908.68948209583,2.729406996080334e-05
-58865.8369686707,2.742592306845081e-05
-58822.984455245576,2.7552887811720282e-05
-58780.13194182045,2.767645090468903e-05
-58737.279428395326,2.7801361215505708e-05
-58694.426914970194,2.7923471751562802e-05
-58651.57440154507,2.80422067861662e-05
-58608.721888119944,2.8156826219299648e-05
-58565.86937469481,2.8266648493371968e-05
-58523.01686126969,2.8372590420831002e-05
-58480.16434784456,2.8475612668291775e-05
-58437.31183441944,2.8577838976249948e-05
-58394.45932099431,2.8677871789837192e-05
-58351.60680756918,2.8777433626374346e-05
-58308.754294144055,2.887423555277316e-05
-58265.90178071893,2.896901352738071e-05
-58223.0492672938,2.9060965557399253e-05
-58180.19675386867,2.9150355915430287e-05
-58137.34424044355,2.923741116138781e-05
-58094.49172701842,2.9323179250796677e-05
-58051.63921359329,2.9406828749166812e-05
-58008.786700168166,2.948650704193247e-05
-57965.93418674304,2.956523662044161e-05
-57923.08167331791,2.9641150955993585e-05
-57880.229159892784,2.971684976945365e-05
-57837.37664646766,2.979221398951214e-05
-57794.524133042534,2.986597407747907e-05
-57751.67161961741,2.9938988024609813e-05
-57708.81910619228,3.0010022485997983e-05
-57665.96659276715,3.0078789637269924e-05
-57623.11407934203,3.0145847913707048e-05
-57580.261565916895,3.021296095168388e-05
-57537.40905249177,3.028157113080625e-05
-57494.556539066645,3.0350143592062874e-05
-57451.70402564152,3.0419478730248733e-05
-57408.851512216395,3.0490448008197402e-05
-57365.99899879126,3.055972357948547e-05
-57323.14648536614,3.062876282697257e-05
-57280.29397194101,3.070016274103418e-05
-57237.44145851588,3.077063991045678e-05
-57194.588945090756,3.083765354270287e-05
-57151.73643166563,3.090533908490119e-05
-57108.883918240506,3.09733526626127e-05
-57066.031404815374,3.103737873034037e-05
-57023.17889139025,3.110263145709754e-05
-56980.326377965124,3.116739523326456e-05
-56937.47386453999,3.1229891552792864e-05
-56894.62135111487,3.128818099112079e-05
-56851.76883768974,3.13445186148232e-05
-56808.91632426462,3.139840332759335e-05
-56766.06381083949,3.1448014012638815e-05
-56723.21129741436,3.1496464715406725e-05
-56680.358783989235,3.1544051537777506e-05
-56637.50627056411,3.1591203446892874e-05
-56594.65375713898,3.163834392998269e-05
-56551.80124371385,3.168191896669478e-05
-56508.94873028873,3.172412826399267e-05
-56466.0962168636,3.176455931986164e-05
-56423.24370343848,3.1803206756742824e-05
-56380.391190013346,3.184461118130308e-05
-56337.53867658822,3.1882784732581214e-05
-56294.68616316309,3.191797995622428e-05
-56251.833649737964,3.1952923667756025e-05
-56208.98113631284,3.1983430012132735e-05
-56166.128622887714,3.201229623945225e-05
-56123.27610946259,3.203665745788408e-05
-56080.42359603746,3.205884808887662e-05
-56037.57108261233,3.207887728859869e-05
-55994.71856918721,3.209868266987975e-05
-55951.866055762075,3.2117687228042164e-05
-55909.01354233695,3.213409767372013e-05
-55866.161028911825,3.214735209273935e-05
-55823.3085154867,3.215754313068707e-05
-55780.456002061575,3.21650371705215e-05
-55737.60348863644,3.2169910903644075e-05
-55694.75097521132,3.217111852094472e-05
-55651.89846178619,3.2170825405255516e-05
-55609.04594836106,3.217425270278359e-05
-55566.193434935936,3.217903333819895e-05
-55523.34092151081,3.218208009054505e-05
-55480.48840808569,3.2182270077028685e-05
-55437.635894660554,3.21797898442526e-05
-55394.78338123543,3.217557547144431e-05
-55351.930867810304,3.2170612564842945e-05
-55309.07835438517,3.216334456907962e-05
-55266.22584096005,3.2154731037744476e-05
-55223.37332753492,3.214315146790168e-05
-55180.5208141098,3.212651726066315e-05
-55137.66830068467,3.211051727277715e-05
-55094.81578725954,3.209435969605062e-05
-55051.963273834415,3.20790623363588e-05
-55009.11076040929,3.2061630465712437e-05
-54966.25824698416,3.204012373876473e-05
-54923.40573355903,3.201543847188168e-05
-54880.55322013391,3.1988895484846986e-05
-54837.70070670878,3.195840370915446e-05
-54794.84819328366,3.192511124277431e-05
-54751.995679858526,3.18880733006377e-05
-54709.1431664334,3.1848244965493485e-05
-54666.29065300827,3.18070639481348e-05
-54623.438139583144,3.1767869984641574e-05
-54580.58562615802,3.172815660097999e-05
-54537.733112732894,3.168846265234598e-05
-54494.88059930777,3.1645991526859755e-05
-54452.02808588264,3.1603042496918476e-05
-54409.17557245751,3.155497796983435e-05
-54366.32305903239,3.150721914887243e-05
-54323.470545607255,3.145917723003361e-05
-54280.61803218213,3.141259906837025e-05
-54237.765518757005,3.137164578352176e-05
-54194.91300533188,3.133252704837179e-05
-54152.060491906755,3.1291922625743575e-05
-54109.20797848162,3.125005957836287e-05
-54066.3554650565,3.120637864461088e-05
-54023.50295163137,3.1163000505843495e-05
-53980.65043820624,3.11193771751125e-05
-53937.797924781116,3.107172847110104e-05
-53894.94541135599,3.102256854180941e-05
-53852.09289793087,3.097275331742331e-05
-53809.240384505734,3.09214891210188e-05
-53766.38787108061,3.0870452672125533e-05
-53723.535357655484,3.081796344920248e-05
-53680.68284423035,3.0765211193428916e-05
-53637.83033080523,3.0713743442585125e-05
-53594.9778173801,3.066321999430613e-05
-53552.12530395498,3.061340020936392e-05
-53509.27279052985,3.05618395578724e-05
-53466.42027710472,3.050751238845851e-05
-53423.567763679595,3.045206832818919e-05
-53380.71525025447,3.0397921846186043e-05
-53337.86273682934,3.0340752897287695e-05
-53295.01022340421,3.0281011848866022e-05
-53252.15770997909,3.022208179511006e-05
-53209.30519655396,3.0159097610596113e-05
-53166.45268312884,3.0095753929768156e-05
-53123.600169703706,3.0029623899240773e-05
-53080.74765627858,2.9959676841717183e-05
-53037.89514285345,2.9888914507264023e-05
-52995.042629428324,2.981554032726238e-05
-52952.1901160032,2.9741815539022404e-05
-52909.337602578074,2.9668545392644998e-05
-52866.48508915295,2.9597197952340712e-05
-52823.63257572782,2.9522450834997362e-05
-52780.78006230269,2.9447801603963652e-05
-52737.92754887757,2.937345631968518e-05
-52695.075035452435,2.929703883738203e-05
-52652.22252202731,2.921787179885751e-05
-52609.370008602185,2.9136174962214672e-05
-52566.51749517706,2.9053103006070725e-05
-52523.664981751936,2.8969339113134363e-05
-52480.8124683268,2.8884683498114748e-05
-52437.95995490168,2.879816745220313e-05
-52395.10744147655,2.8715553848782807e-05
-52352.25492805142,2.8633658597129258e-05
-52309.4024146263,2.855192049176252e-05
-52266.54990120117,2.846987343369172e-05
-52223.69738777605,2.838953047232373e-05
-52180.844874350914,2.8308246111867442e-05
-52137.99236092579,2.8225977830886264e-05
-52095.139847500664,2.8145261922361095e-05
-52052.28733407553,2.8064177236690027e-05
-52009.43482065041,2.7981152691839867e-05
-51966.58230722528,2.789809448975324e-05
-51923.72979380016,2.7814656570562948e-05
-51880.87728037503,2.77313551474703e-05
-51838.0247669499,2.764922691737134e-05
-51795.172253524775,2.7568286975202117e-05
-51752.31974009965,2.7488027073216815e-05
-51709.46722667452,2.740847026519544e-05
-51666.61471324939,2.732989936141022e-05
-51623.76219982427,2.725090710143228e-05
-51580.90968639914,2.7173876641163475e-05
-51538.05717297402,2.7096386065271443e-05
-51495.20465954889,2.701695943691471e-05
-51452.35214612376,2.6935941302019832e-05
-51409.49963269864,2.6853286403554513e-05
-51366.647119273504,2.6770132206729162e-05
-51323.79460584838,2.6685759652031735e-05
-51280.942092423255,2.6604258855417713e-05
-51238.08957899813,2.6523522845513283e-05
-51195.237065573,2.6441193899415983e-05
-51152.38455214787,2.6356360924246527e-05
-51109.53203872275,2.6267765612753528e-05
-51066.679525297615,2.6177015049911245e-05
-51023.82701187249,2.6085687556574167e-05
-50980.974498447365,2.599578349710828e-05
-50938.12198502224,2.5909956964723422e-05
-50895.269471597116,2.5830164164267356e-05
-50852.41695817198,2.5751625076707752e-05
-50809.56444474686,2.5670461444080652e-05
-50766.71193132173,2.558845239653064e-05
-50723.8594178966,2.5507983751081344e-05
-50681.00690447148,2.5426933064200716e-05
-50638.15439104635,2.5345271110565e-05
-50595.30187762123,2.5263223818928704e-05
-50552.4493641961,2.5183602466330756e-05
-50509.59685077097,2.510188357336233e-05
-50466.744337345845,2.5020416202544452e-05
-50423.89182392071,2.4940180993762507e-05
-50381.03931049559,2.485553356510402e-05
-50338.18679707046,2.4767929885678683e-05
-50295.33428364534,2.4679025127889883e-05
-50252.48177022021,2.4591827932153857e-05
-50209.62925679509,2.4504936108242562e-05
-50166.776743369956,2.4420112220730802e-05
-50123.92422994483,2.433612065982131e-05
-50081.0717165197,2.4252238037906566e-05
-50038.21920309457,2.4168946676202683e-05
-49995.36668966945,2.4087917613991263e-05
-49952.51417624432,2.4009160501973864e-05
-49909.6616628192,2.392821333316955e-05
-49866.80914939407,2.3846138741865058e-05
-49823.95663596894,2.3765354076329512e-05
-49781.10412254381,2.3684821389735337e-05
-49738.251609118684,2.3603940654253844e-05
-49695.39909569356,2.3523621093993268e-05
-49652.546582268435,2.3443931488782184e-05
-49609.69406884331,2.336722792765311e-05
-49566.841555418185,2.3293206797922918e-05
-49523.98904199305,2.321844198457714e-05
-49481.13652856793,2.3139989219941593e-05
-49438.284015142795,2.306037402873578e-05
-49395.43150171767,2.298381148439021e-05
-49352.578988292546,2.2909516369272438e-05
-49309.72647486742,2.2834339455162633e-05
-49266.873961442296,2.2758470450982232e-05
-49224.02144801716,2.2685332052531522e-05
-49181.16893459204,2.2616351226559557e-05
-49138.31642116691,2.255284558135042e-05
-49095.46390774178,2.24937992892315e-05
-49052.61139431666,2.2436062164862295e-05
-49009.75888089153,2.2377683660935805e-05
-48966.90636746641,2.231775515921362e-05
-48924.05385404128,2.2256849287295928e-05
-48881.20134061615,2.2198798115359317e-05
-48838.348827191025,2.2141815147997665e-05
-48795.49631376589,2.2085311198587173e-05
-48752.64380034077,2.203173979875455e-05
-48709.79128691564,2.19795386720123e-05
-48666.93877349052,2.193036589664726e-05
-48624.08626006539,2.188421907331161e-05
-48581.23374664027,2.183668744031748e-05
-48538.381233215136,2.1785621993613945e-05
-48495.52871979001,2.1733117945706187e-05
-48452.67620636488,2.1679990770376145e-05
-48409.82369293975,2.162877274949207e-05
-48366.97117951463,2.1579324707788782e-05
-48324.118666089504,2.1529706045696494e-05
-48281.26615266438,2.1478295738116654e-05
-48238.41363923925,2.1428790957332422e-05
-48195.56112581412,2.138046474936501e-05
-48152.70861238899,2.133425031486436e-05
-48109.856098963864,2.1289216300308498e-05
-48067.00358553874,2.124458184595651e-05
-48024.151072113615,2.1196835091773817e-05
-47981.29855868849,2.11515239557318e-05
-47938.446045263365,2.1109169431326845e-05
-47895.59353183823,2.1070905573482714e-05
-47852.74101841311,2.1038393773468823e-05
-47809.888504987975,2.1009076733487194e-05
-47767.03599156285,2.098089384402996e-05
-47724.183478137726,2.0955373945075902e-05
-47681.3309647126,2.0933082071441048e-05
-47638.478451287476,2.0912954908453883e-05
-47595.62593786235,2.0894272102781144e-05
-47552.77342443722,2.0879622561935694e-05
-47509.92091101209,2.087037305503394e-05
-47467.06839758696,2.0863849010669887e-05
-47424.21588416184,2.0860824126552165e-05
-47381.36337073671,2.0861898825638903e-05
-47338.51085731159,2.0865310177661538e-05
-47295.65834388646,2.0872000701134913e-05
-47252.80583046133,2.0887742286553738e-05
-47209.953317036205,2.091001595816409e-05
-47167.10080361107,2.093811926666209e-05
-47124.24829018595,2.0969751794574404e-05
-47081.39577676082,2.1002394715727978e-05
-47038.5432633357,2.10380121778554e-05
-46995.69074991057,2.107815725691815e-05
-46952.83823648545,2.1120670465649374e-05
-46909.985723060316,2.116778329873715e-05
-46867.13320963519,2.1217320721537294e-05
-46824.28069621006,2.1268627857538614e-05
-46781.42818278493,2.132268330213661e-05
-46738.57566935981,2.1377773024292393e-05
-46695.723155934684,2.1433855363109308e-05
-46652.87064250956,2.1489707248013528e-05
-46610.01812908443,2.1550372138719626e-05
-46567.1656156593,2.1615918418274847e-05
-46524.31310223417,2.168303249893922e-05
-46481.460588809045,2.1753656044700576e-05
-46438.60807538392,2.1826740883235107e-05
