grid,density
-23963.63075022128,1.7805728042884034e-08
-23926.329723690855,2.207591806742125e-08
-23889.02869716043,2.6295379399584276e-08
-23851.72767063,3.062769734506649e-08
-23814.426644099574,3.698192754882042e-08
-23777.12561756915,4.543279629417001e-08
-23739.824591038723,5.3848291163928646e-08
-23702.523564508294,6.216232864893977e-08
-23665.22253797787,7.03749087492017e-08
-23627.921511447443,7.84860314647153e-08
-23590.620484917017,8.649569679548054e-08
-23553.319458386588,9.440390474149819e-08
-23516.018431856162,1.0221065530276669e-07
-23478.717405325737,1.1193819040283008e-07
-23441.41637879531,1.2175719094268078e-07
-23404.115352264882,1.314493697515971e-07
-23366.814325734456,1.4101472682957696e-07
-23329.51329920403,1.5045326217662133e-07
-23292.212272673605,1.5999108963817574e-07
-23254.911246143176,1.714115024400412e-07
-23217.61021961275,1.8267972916478305e-07
-23180.309193082325,1.9379576981240238e-07
-23143.0081665519,2.047596243828992e-07
-23105.70714002147,2.155712928762745e-07
-23068.406113491044,2.2623077529252618e-07
-23031.10508696062,2.367380716316554e-07
-22993.804060430193,2.4709318189366203e-07
-22956.503033899764,2.5729610607854713e-07
-22919.20200736934,2.6734684418630877e-07
-22881.900980838913,2.7724539621694785e-07
-22844.599954308487,2.8908089423469473e-07
-22807.298927778058,3.008894771754329e-07
-22769.997901247632,3.125205096928603e-07
-22732.696874717207,3.2397399178697803e-07
-22695.39584818678,3.352499234577862e-07
-22658.094821656352,3.485853593053102e-07
-22620.793795125926,3.6171890786158984e-07
-22583.4927685955,3.7547699027571464e-07
-22546.191742065075,3.9263040592734467e-07
-22508.890715534646,4.0957174674011205e-07
-22471.58968900422,4.262594440910069e-07
-22434.288662473795,4.4269349798003097e-07
-22396.98763594337,4.5967675540626334e-07
-22359.68660941294,4.778325271110673e-07
-22322.385582882514,4.957092910078119e-07
-22285.08455635209,5.148431913945286e-07
-22247.783529821663,5.343826318551637e-07
-22210.482503291234,5.536177001615558e-07
-22173.18147676081,5.725483963137008e-07
-22135.880450230383,5.911747203116007e-07
-22098.579423699957,6.105590527052925e-07
-22061.278397169528,6.308026986256339e-07
-22023.977370639102,6.544524244392246e-07
-21986.676344108677,6.790986491919523e-07
-21949.37531757825,7.085409792264201e-07
-21912.074291047822,7.390632742715669e-07
-21874.773264517396,7.740349464042651e-07
-21837.47223798697,8.113857399063389e-07
-21800.171211456545,8.509395124679663e-07
-21762.870184926116,8.899099050672941e-07
-21725.56915839569,9.282969177043152e-07
-21688.268131865265,9.666268993733525e-07
-21650.96710533484,1.0064222693192167e-06
-21613.66607880441,1.0479296232519853e-06
-21576.365052273984,1.0906065810542533e-06
-21539.06402574356,1.1330426127479862e-06
-21501.762999213133,1.1766339733761262e-06
-21464.461972682704,1.2195404966572189e-06
-21427.16094615228,1.263147973582593e-06
-21389.859919621853,1.3080134259447836e-06
-21352.558893091427,1.353288041584483e-06
-21315.257866560998,1.39782709118476e-06
-21277.956840030572,1.4432435315532373e-06
-21240.655813500147,1.4885312687275263e-06
-21203.35478696972,1.5330580755162027e-06
-21166.053760439292,1.5768239519192707e-06
-21128.752733908867,1.6207338948100222e-06
-21091.45170737844,1.665205759072982e-06
-21054.150680848015,1.7088913286041422e-06
-21016.849654317586,1.7517906034035068e-06
-20979.54862778716,1.7939035834710677e-06
-20942.247601256735,1.8352302688068282e-06
-20904.94657472631,1.876306034313692e-06
-20867.64554819588,1.9182921592912734e-06
-20830.344521665455,1.9594666251908645e-06
-20793.04349513503,1.9998294320124683e-06
-20755.742468604603,2.04101326734596e-06
-20718.441442074174,2.0839912792134833e-06
-20681.14041554375,2.1269599989326604e-06
-20643.839389013323,2.1724151791182685e-06
-20606.538362482897,2.218859194573673e-06
-20569.237335952468,2.266715675928759e-06
-20531.936309422043,2.316117040468214e-06
-20494.635282891617,2.364999055929784e-06
-20457.33425636119,2.412891861890058e-06
-20420.033229830762,2.460499074919016e-06
-20382.732203300337,2.5089211687992463e-06
-20345.43117676991,2.5584512023873757e-06
-20308.130150239485,2.6090123533154755e-06
-20270.82912370906,2.6596061988941637e-06
-20233.52809717863,2.7104549387439625e-06
-20196.227070648205,2.76540282850797e-06
-20158.92604411778,2.822766846578199e-06
-20121.62501758735,2.8789387403776408e-06
-20084.323991056925,2.936724550829645e-06
-20047.0229645265,2.9977091168517045e-06
-20009.721937996073,3.0591433033355793e-06
-19972.420911465648,3.119283908163912e-06
-19935.11988493522,3.1782596192771618e-06
-19897.818858404793,3.2380496806067504e-06
-19860.517831874367,3.2965207959346126e-06
-19823.216805343938,3.3536729652607517e-06
-19785.915778813513,3.4098752665441446e-06
-19748.614752283087,3.466884326591518e-06
-19711.31372575266,3.524523329677014e-06
-19674.012699222236,3.5807926580684055e-06
-19636.711672691807,3.6356923117657e-06
-19599.41064616138,3.6898750740776446e-06
-19562.109619630955,3.7467525102014466e-06
-19524.808593100526,3.8059133143430776e-06
-19487.5075665701,3.866368270077472e-06
-19450.206540039675,3.925326729386829e-06
-19412.90551350925,3.98278869227115e-06
-19375.604486978824,4.040269991631162e-06
-19338.303460448395,4.097253766406469e-06
-19301.00243391797,4.15701816750171e-06
-19263.701407387543,4.2173231463540455e-06
-19226.400380857114,4.277450912581968e-06
-19189.09935432669,4.336781986239087e-06
-19151.798327796263,4.3944897417402365e-06
-19114.497301265837,4.450574179085407e-06
-19077.196274735412,4.5052652998692535e-06
-19039.895248204983,4.560338577956954e-06
-19002.594221674557,4.615765938665966e-06
-18965.29319514413,4.669757238232457e-06
-18927.992168613702,4.72347532094182e-06
-18890.691142083277,4.779063214333393e-06
-18853.39011555285,4.834674574369698e-06
-18816.089089022425,4.888535794519092e-06
-18778.788062492,4.942558153270205e-06
-18741.48703596157,4.999129202527313e-06
-18704.186009431145,5.062015085655291e-06
-18666.88498290072,5.125763283754075e-06
-18629.58395637029,5.188329183073543e-06
-18592.282929839865,5.248942027736597e-06
-18554.98190330944,5.307601817743246e-06
-18517.680876779013,5.36450839122555e-06
-18480.379850248588,5.421497889260528e-06
-18443.07882371816,5.4777734911028035e-06
-18405.777797187733,5.534754978739371e-06
-18368.476770657307,5.594096717900214e-06
-18331.17574412688,5.6524184294518355e-06
-18293.874717596453,5.71044597346379e-06
-18256.573691066027,5.766774873691668e-06
-18219.2726645356,5.825059535778425e-06
-18181.971638005176,5.884575714692986e-06
-18144.670611474747,5.949530850312741e-06
-18107.36958494432,6.015620572802637e-06
-18070.068558413896,6.082152930371756e-06
-18032.767531883466,6.147044896925135e-06
-17995.46650535304,6.2110646693340945e-06
-17958.165478822615,6.273460121256042e-06
-17920.86445229219,6.334826286612849e-06
-17883.563425761764,6.394724921465949e-06
-17846.262399231335,6.456374076082315e-06
-17808.96137270091,6.5180686430297836e-06
-17771.660346170484,6.577357591263881e-06
-17734.359319640054,6.637083756341245e-06
-17697.05829310963,6.696062995619421e-06
-17659.757266579203,6.756129669625293e-06
-17622.456240048778,6.81559725978208e-06
-17585.155213518352,6.87326803350654e-06
-17547.854186987923,6.928355835719811e-06
-17510.553160457497,6.9830653220269326e-06
-17473.25213392707,7.0353415049113465e-06
-17435.951107396642,7.096032016179352e-06
-17398.650080866217,7.158551876397925e-06
-17361.34905433579,7.218357751574478e-06
-17324.048027805366,7.275449641709018e-06
-17286.74700127494,7.331552392433844e-06
-17249.44597474451,7.388146612943512e-06
-17212.144948214085,7.4450878755522835e-06
-17174.84392168366,7.503720086767149e-06
-17137.54289515323,7.5663727964299184e-06
-17100.241868622805,7.62777504087078e-06
-17062.94084209238,7.687846407221374e-06
-17025.639815561954,7.745051602452833e-06
-16988.338789031528,7.80246240018481e-06
-16951.0377625011,7.861747974432542e-06
-16913.736735970673,7.921610484789434e-06
-16876.435709440248,7.981495542794992e-06
-16839.13468290982,8.04009148853299e-06
-16801.833656379393,8.102309027212963e-06
-16764.532629848967,8.165669196333063e-06
-16727.23160331854,8.22807889468829e-06
-16689.930576788116,8.28734341411633e-06
-16652.62955025769,8.34487846308595e-06
-16615.32852372726,8.402511002773648e-06
-16578.027497196836,8.46133198445167e-06
-16540.72647066641,8.518499263744093e-06
-16503.42544413598,8.574244693135587e-06
-16466.124417605555,8.629835109861699e-06
-16428.82339107513,8.68245882477576e-06
-16391.522364544704,8.732099153067412e-06
-16354.221338014277,8.780413682340822e-06
-16316.92031148385,8.831831040423906e-06
-16279.619284953424,8.889002462393178e-06
-16242.318258422998,8.9478140356472e-06
-16205.01723189257,9.007124549602513e-06
-16167.716205362143,9.063951824176708e-06
-16130.415178831718,9.120742601833222e-06
-16093.114152301292,9.178272870891822e-06
-16055.813125770865,9.235694561868003e-06
-16018.512099240437,9.29642757077135e-06
-15981.211072710012,9.356545322517823e-06
-15943.910046179586,9.41621011604796e-06
-15906.609019649159,9.475670072087882e-06
-15869.307993118731,9.533120796298643e-06
-15832.006966588306,9.587418554005524e-06
-15794.70594005788,9.642417377998266e-06
-15757.404913527453,9.696259254715589e-06
-15720.103886997025,9.75144039612295e-06
-15682.8028604666,9.806110927298596e-06
-15645.501833936172,9.863473542694037e-06
-15608.200807405747,9.9197880367497e-06
-15570.89978087532,9.977771226183647e-06
-15533.598754344894,1.0033324934709987e-05
-15496.297727814466,1.0090018785325351e-05
-15458.99670128404,1.0151127646088283e-05
-15421.695674753613,1.021802641993604e-05
-15384.394648223188,1.0287544772742659e-05
-15347.09362169276,1.0358973471248383e-05
-15309.792595162335,1.043101314710261e-05
-15272.491568631907,1.0507718602584828e-05
-15235.190542101482,1.05925200154746e-05
-15197.889515571054,1.0679968044456777e-05
-15160.588489040629,1.076801059190689e-05
-15123.287462510201,1.0855035980312226e-05
-15085.986435979776,1.0942245356175807e-05
-15048.685409449348,1.1027762319441438e-05
-15011.384382918923,1.1114969823094081e-05
-14974.083356388495,1.1205013127919332e-05
-14936.78232985807,1.1296596652690503e-05
-14899.481303327642,1.1387308293630355e-05
-14862.180276797217,1.1478308706638161e-05
-14824.87925026679,1.1569537255856084e-05
-14787.578223736364,1.1664722394707547e-05
-14750.277197205936,1.1761450545042256e-05
-14712.97617067551,1.1856558596609919e-05
-14675.675144145083,1.1951697009088412e-05
-14638.374117614658,1.2048013172741144e-05
-14601.07309108423,1.2145640842484843e-05
-14563.772064553805,1.2242725574594192e-05
-14526.471038023377,1.2342725080777088e-05
-14489.170011492952,1.2442742015126575e-05
-14451.868984962524,1.2539874878154141e-05
-14414.567958432099,1.2635769469916105e-05
-14377.266931901673,1.2732461412667093e-05
-14339.965905371246,1.2837499457079594e-05
-14302.66487884082,1.2941903587232877e-05
-14265.363852310393,1.3048331688346674e-05
-14228.062825779967,1.3152857997198578e-05
-14190.76179924954,1.3254613411331936e-05
-14153.460772719114,1.3357791892440594e-05
-14116.159746188687,1.3465754233234767e-05
-14078.858719658261,1.3577877740550846e-05
-14041.557693127834,1.3691178773615696e-05
-14004.256666597408,1.3806477226465466e-05
-13966.95564006698,1.3920607567046946e-05
-13929.654613536555,1.4031666244224647e-05
-13892.353587006128,1.4142628588191058e-05
-13855.052560475702,1.4253271364579096e-05
-13817.751533945275,1.4360432457637988e-05
-13780.45050741485,1.4468949800496427e-05
-13743.149480884422,1.4582517967112322e-05
-13705.848454353996,1.4702989457114897e-05
-13668.547427823569,1.4820533918348205e-05
-13631.246401293143,1.4935889316373896e-05
-13593.945374762716,1.5048412329865076e-05
-13556.64434823229,1.5161600252970934e-05
-13519.343321701863,1.5272536354593235e-05
-13482.042295171437,1.5379729241942314e-05
-13444.74126864101,1.5484872602201487e-05
-13407.440242110584,1.559252380585925e-05
-13370.139215580157,1.5700922521137445e-05
-13332.838189049731,1.5805741239083752e-05
-13295.537162519304,1.5908912891343425e-05
-13258.236135988878,1.6010769819441155e-05
-13220.93510945845,1.6110493926001746e-05
-13183.634082928025,1.6206345799415483e-05
-13146.333056397598,1.6299125808381038e-05
-13109.032029867172,1.6390619735854422e-05
-13071.731003336745,1.648069345513137e-05
-13034.42997680632,1.6574869325037196e-05
-12997.128950275892,1.6666022592916764e-05
-12959.827923745466,1.6755071680558812e-05
-12922.526897215039,1.6846400720757084e-05
-12885.225870684613,1.694275984226386e-05
-12847.924844154186,1.7035834794995563e-05
-12810.62381762376,1.712332032089059e-05
-12773.322791093333,1.7208748691947386e-05
-12736.021764562907,1.7292363606051324e-05
-12698.72073803248,1.7376309662834008e-05
-12661.419711502054,1.7462675133391006e-05
-12624.118684971627,1.754860171308908e-05
-12586.817658441201,1.7632065164463845e-05
-12549.516631910774,1.771283462652866e-05
-12512.215605380348,1.778937097197497e-05
-12474.91457884992,1.7861756518843732e-05
-12437.613552319495,1.7929576528974576e-05
-12400.312525789068,1.799286237746332e-05
-12363.011499258642,1.8055538103664724e-05
-12325.710472728215,1.8118753743481477e-05
-12288.40944619779,1.8182174707206018e-05
-12251.108419667362,1.824270264748674e-05
-12213.807393136936,1.8303123742255392e-05
-12176.506366606509,1.835994673492119e-05
-12139.205340076083,1.8418131120903047e-05
-12101.904313545656,1.8488459152295892e-05
-12064.60328701523,1.8558572431223225e-05
-12027.302260484803,1.8624525501628333e-05
-11990.001233954377,1.868578404235084e-05
-11952.70020742395,1.8748150895155485e-05
-11915.399180893524,1.8810494952294015e-05
-11878.098154363097,1.8875352132256572e-05
-11840.797127832671,1.893668520738659e-05
-11803.496101302244,1.899360489840338e-05
-11766.195074771818,1.90553243803496e-05
-11728.894048241391,1.9115359112967345e-05
-11691.593021710965,1.9171135013197315e-05
-11654.291995180538,1.9224136111477277e-05
-11616.990968650112,1.9276559047359346e-05
-11579.689942119685,1.933231353480652e-05
-11542.38891558926,1.939774608971095e-05
-11505.087889058832,1.9461484895785642e-05
-11467.786862528406,1.9523733021340088e-05
-11430.485835997979,1.9583838100524865e-05
-11393.184809467553,1.9643725100597812e-05
-11355.883782937126,1.9704500564009547e-05
-11318.5827564067,1.9763400457172485e-05
-11281.281729876273,1.9819095172207603e-05
-11243.980703345847,1.987136721498186e-05
-11206.67967681542,1.9923726895276462e-05
-11169.378650284994,1.9978063186785584e-05
-11132.077623754567,2.0033981792873775e-05
-11094.776597224141,2.009860247484461e-05
-11057.475570693714,2.0162401651056233e-05
-11020.174544163288,2.0226455428759296e-05
-10982.873517632861,2.0297229214076738e-05
-10945.572491102435,2.0369450894821362e-05
-10908.271464572008,2.0438910329650718e-05
-10870.970438041582,2.0502193613256874e-05
-10833.669411511155,2.0568392040949648e-05
-10796.36838498073,2.0637053664035745e-05
-10759.067358450302,2.0701159395142085e-05
-10721.766331919876,2.075800750142624e-05
-10684.465305389449,2.0810747599564265e-05
-10647.164278859023,2.086388255871695e-05
-10609.863252328596,2.092161934956035e-05
-10572.56222579817,2.097648779577113e-05
-10535.261199267743,2.103261922891534e-05
-10497.960172737317,2.1086641908518572e-05
-10460.65914620689,2.1142735699049406e-05
-10423.358119676464,2.120053942214422e-05
-10386.057093146037,2.125311693872471e-05
-10348.756066615611,2.1306541248123288e-05
-10311.455040085184,2.1364181691447756e-05
-10274.154013554758,2.142269379767162e-05
-10236.852987024331,2.1481665895566948e-05
-10199.551960493905,2.1551090166706645e-05
-10162.250933963478,2.16274084835082e-05
-10124.949907433052,2.1698444273204503e-05
-10087.648880902625,2.176562526566863e-05
-10050.3478543722,2.183020653179466e-05
-10013.046827841772,2.189829447434741e-05
-9975.745801311346,2.1972891845203817e-05
-9938.444774780919,2.204527023428941e-05
-9901.143748250493,2.211322702925806e-05
-9863.842721720066,2.2179054339799633e-05
-9826.54169518964,2.2240759327948304e-05
-9789.240668659213,2.2296602553158e-05
-9751.939642128787,2.235124367632308e-05
-9714.63861559836,2.240280845374204e-05
-9677.337589067934,2.2459619987868695e-05
-9640.036562537509,2.2516270681768757e-05
-9602.735536007081,2.257375990271131e-05
-9565.434509476656,2.2627100026662458e-05
-9528.133482946228,2.2682589074525488e-05
-9490.832456415803,2.273806397932885e-05
-9453.531429885375,2.2793385448120744e-05
-9416.23040335495,2.2847582404650375e-05
-9378.929376824522,2.2906346819666e-05
-9341.628350294097,2.295989018301151e-05
-9304.32732376367,2.3012507427031243e-05
-9267.026297233244,2.3063937949676002e-05
-9229.725270702816,2.3116565059706582e-05
-9192.42424417239,2.3169187616116285e-05
-9155.123217641963,2.322335336445515e-05
-9117.822191111538,2.3277760271241295e-05
-9080.52116458111,2.333176092822976e-05
-9043.220138050685,2.3385416479470615e-05
-9005.919111520258,2.3443133233607997e-05
-8968.618084989832,2.350288795892054e-05
-8931.317058459405,2.35666797216047e-05
-8894.016031928979,2.362850295754089e-05
-8856.715005398552,2.3689844650075105e-05
-8819.413978868126,2.3755220180429426e-05
-8782.112952337699,2.3822341095405257e-05
-8744.811925807273,2.3892752552427937e-05
-8707.510899276846,2.395619334491633e-05
-8670.20987274642,2.4021945511135612e-05
-8632.908846215993,2.4095430594809096e-05
-8595.607819685567,2.4170736046142497e-05
-8558.30679315514,2.4247373226250402e-05
-8521.005766624714,2.4323621436163597e-05
-8483.704740094287,2.4401689139837734e-05
-8446.403713563861,2.4475325276386245e-05
-8409.102687033434,2.4544923452756677e-05
-8371.801660503008,2.4618527572943723e-05
-8334.50063397258,2.469492864392542e-05
-8297.199607442155,2.476993930292156e-05
-8259.898580911728,2.4845185384925306e-05
-8222.597554381302,2.492100084273387e-05
-8185.296527850875,2.499835647355586e-05
-8147.995501320449,2.5077475304522246e-05
-8110.694474790022,2.5152857209810725e-05
-8073.393448259596,2.522235506448416e-05
-8036.092421729169,2.5292755970999515e-05
-7998.791395198743,2.5363645232017576e-05
-7961.490368668316,2.5441209877687338e-05
-7924.18934213789,2.5516289594604852e-05
-7886.888315607463,2.559081320664062e-05
-7849.587289077037,2.566093511399684e-05
-7812.28626254661,2.5732478651229113e-05
-7774.985236016184,2.5804225359622516e-05
-7737.684209485757,2.5880883901776604e-05
-7700.383182955331,2.59622942569757e-05
-7663.082156424904,2.604312082710418e-05
-7625.781129894478,2.612430712325715e-05
-7588.480103364051,2.6205723111499546e-05
-7551.179076833625,2.6285824429054132e-05
-7513.878050303199,2.637613283839493e-05
-7476.57702377277,2.6463315392706876e-05
-7439.275997242345,2.655371855738357e-05
-7401.974970711919,2.6643056228750506e-05
-7364.673944181493,2.673356085960346e-05
-7327.372917651064,2.6821838772423865e-05
-7290.071891120639,2.6906818149702405e-05
-7252.770864590213,2.6994406902604024e-05
-7215.469838059787,2.7077429991756372e-05
-7178.168811529358,2.7160255131899742e-05
-7140.867784998933,2.7243362423313996e-05
-7103.566758468507,2.7338620691052614e-05
-7066.265731938081,2.7436139946314116e-05
-7028.964705407652,2.753522156857751e-05
-6991.663678877227,2.7629029634076862e-05
-6954.362652346801,2.7715861035533164e-05
-6917.061625816375,2.7798017143212028e-05
-6879.760599285946,2.7876544210852752e-05
-6842.459572755521,2.7946998329745267e-05
-6805.158546225095,2.80184121442392e-05
-6767.8575196946695,2.8097078798128987e-05
-6730.55649316424,2.8175680330725756e-05
-6693.255466633815,2.824734973250136e-05
-6655.954440103389,2.831466292819945e-05
-6618.6534135729635,2.837755310755963e-05
-6581.352387042534,2.8438037858238447e-05
-6544.051360512109,2.8494091141310545e-05
-6506.750333981683,2.854529516114503e-05
-6469.4493074512575,2.8590219356640832e-05
-6432.148280920828,2.863494610422064e-05
-6394.847254390403,2.8678415389093984e-05
-6357.546227859977,2.8716902409587815e-05
-6320.2452013295515,2.8754335774384916e-05
-6282.944174799122,2.8793047842308278e-05
-6245.643148268697,2.8837126114764714e-05
