grid,density
-60246.13856401356,9.048840771003577e-08
-60205.60028153365,1.0111041617901395e-07
-60165.06199905373,1.125243837851031e-07
-60124.52371657382,1.238153822731069e-07
-60083.985434093905,1.3498341164302945e-07
-60043.44715161399,1.4669381938314763e-07
-60002.90886913407,1.5932693072408415e-07
-59962.37058665416,1.732226633179772e-07
-59921.83230417425,1.869646845142636e-07
-59881.29402169433,2.01957464010523e-07
-59840.755739214415,2.169382629691911e-07
-59800.2174567345,2.3174997939049452e-07
-59759.67917425458,2.4772706379544276e-07
-59719.140891774674,2.638567254622538e-07
-59678.60260929476,2.813319962749175e-07
-59638.06432681484,3.000863674387158e-07
-59597.526044334925,3.1862554264586836e-07
-59556.98776185501,3.371019011556928e-07
-59516.4494793751,3.5676922179208525e-07
-59475.911196895184,3.7620597533207494e-07
-59435.37291441527,3.974007590486514e-07
-59394.83463193535,4.228144345266842e-07
-59354.296349455435,4.5068557121769974e-07
-59313.758066975526,4.783863513919031e-07
-59273.21978449561,5.057643376311427e-07
-59232.681502015694,5.347082741493785e-07
-59192.14321953578,5.645421605833976e-07
-59151.60493705586,5.940225108029276e-07
-59111.06665457595,6.256532412231885e-07
-59070.528372096036,6.581812878631432e-07
-59029.99008961612,6.912192557610084e-07
-58989.4518071362,7.2458884341904e-07
-58948.91352465629,7.607472793580234e-07
-58908.37524217638,7.97220542808407e-07
-58867.83695969646,8.332480432057451e-07
-58827.298677216546,8.700867777639036e-07
-58786.76039473663,9.098997016247515e-07
-58746.22211225671,9.507715108250541e-07
-58705.683829776804,9.911360724132563e-07
-58665.14554729689,1.0327222722117519e-06
-58624.60726481697,1.0759241406763923e-06
-58584.068982337056,1.1209519903159484e-06
-58543.53069985714,1.1671426578360872e-06
-58502.99241737723,1.2152370637658073e-06
-58462.454134897314,1.2649583588185588e-06
-58421.9158524174,1.3168461748495298e-06
-58381.37756993748,1.3681771409614277e-06
-58340.839287457566,1.4188716568817916e-06
-58300.30100497766,1.4714722100497414e-06
-58259.76272249774,1.5264169720582401e-06
-58219.224440017824,1.5821351314877418e-06
-58178.68615753791,1.6406423171349365e-06
-58138.14787505799,1.7029099219063184e-06
-58097.60959257808,1.7648092433649289e-06
-58057.07131009817,1.8264239305617768e-06
-58016.53302761825,1.8899543685355929e-06
-57975.994745138334,1.954383489009235e-06
-57935.45646265842,2.019995177108644e-06
-57894.91818017851,2.0884757696430705e-06
-57854.37989769859,2.15614454834277e-06
-57813.84161521868,2.224181005389781e-06
-57773.30333273876,2.291552580331559e-06
-57732.765050258844,2.358608148825454e-06
-57692.226767778935,2.427428457868122e-06
-57651.68848529902,2.4966283035711855e-06
-57611.1502028191,2.565868874933766e-06
-57570.611920339186,2.6350331112682173e-06
-57530.07363785927,2.705837174424512e-06
-57489.53535537936,2.777539159881147e-06
-57448.997072899445,2.850899880120805e-06
-57408.45879041953,2.9233280973366683e-06
-57367.92050793961,2.995226791438663e-06
-57327.382225459696,3.068894257060879e-06
-57286.84394297979,3.142735833629723e-06
-57246.30566049987,3.2154553169960714e-06
-57205.767378019955,3.2870527071599083e-06
-57165.22909554004,3.3575280041212345e-06
-57124.69081306012,3.4268812078800497e-06
-57084.15253058021,3.4951123184363433e-06
-57043.6142481003,3.563477274450358e-06
-57003.07596562038,3.633487770097658e-06
-56962.537683140465,3.704577218484899e-06
-56921.99940066055,3.778108480548061e-06
-56881.46111818064,3.85288462191202e-06
-56840.92283570072,3.933005186872415e-06
-56800.38455322081,4.015483293422507e-06
-56759.84627074089,4.1002715709102304e-06
-56719.307988260975,4.1875502824952875e-06
-56678.769705781066,4.276227681999534e-06
-56638.23142330115,4.370573074984816e-06
-56597.69314082123,4.469184870951416e-06
-56557.15485834132,4.568719440320861e-06
-56516.6165758614,4.669539337767387e-06
-56476.07829338149,4.771868664427644e-06
-56435.540010901575,4.875675006917567e-06
-56395.00172842166,4.982483413940433e-06
-56354.46344594174,5.0921172618714205e-06
-56313.92516346183,5.20340513509065e-06
-56273.38688098192,5.3128792138181265e-06
-56232.848598502,5.422678571260669e-06
-56192.310316022085,5.531957426175105e-06
-56151.77203354217,5.64182145338952e-06
-56111.23375106225,5.752955732368621e-06
-56070.695468582344,5.8659253101944344e-06
-56030.15718610243,5.979732985394088e-06
-55989.61890362251,6.09521210897534e-06
-55949.080621142595,6.211791207876753e-06
-55908.54233866268,6.327960966461321e-06
-55868.00405618277,6.451345916825639e-06
-55827.465773702854,6.5747954668547e-06
-55786.92749122294,6.69673492660332e-06
-55746.38920874302,6.822628866247627e-06
-55705.850926263105,6.949099949710246e-06
-55665.312643783196,7.075909670310203e-06
-55624.77436130328,7.204455890992113e-06
-55584.236078823364,7.33308430872576e-06
-55543.69779634345,7.4619976685207706e-06
-55503.15951386353,7.590824573417397e-06
-55462.62123138362,7.722661646137937e-06
-55422.082948903706,7.85483371740981e-06
-55381.54466642379,7.988199506702293e-06
-55341.00638394387,8.120066056415561e-06
-55300.46810146396,8.25326561835532e-06
-55259.92981898405,8.384868944021924e-06
-55219.39153650413,8.516786092210271e-06
-55178.853254024216,8.648952034851069e-06
-55138.3149715443,8.783823640768607e-06
-55097.77668906438,8.922527738657396e-06
-55057.238406584474,9.065158315127081e-06
-55016.70012410456,9.210962226441253e-06
-54976.16184162464,9.358842495785529e-06
-54935.623559144726,9.504895454041309e-06
-54895.08527666481,9.652741786728081e-06
-54854.5469941849,9.800922357565114e-06
-54814.008711704984,9.947064846882768e-06
-54773.47042922507,1.0092109605256053e-05
-54732.93214674515,1.0237747598495663e-05
-54692.393864265236,1.038401152767116e-05
-54651.85558178533,1.0531273426179038e-05
-54611.31729930541,1.0677344633601663e-05
-54570.779016825494,1.0823912446142746e-05
-54530.24073434558,1.097176970817499e-05
-54489.70245186566,1.1122826452674181e-05
-54449.16416938575,1.1275380552057092e-05
-54408.62588690584,1.1429545726644408e-05
-54368.08760442592,1.1582751062665901e-05
-54327.549321946004,1.1736873032033845e-05
-54287.01103946609,1.1889032237128971e-05
-54246.47275698618,1.2038854411135202e-05
-54205.93447450626,1.219117345300249e-05
-54165.39619202635,1.234474456848716e-05
-54124.85790954643,1.2499455655462822e-05
-54084.319627066514,1.2659410137679566e-05
-54043.781344586605,1.2821140277330177e-05
-54003.24306210669,1.2990357240518786e-05
-53962.70477962677,1.3160818581370166e-05
-53922.166497146856,1.333215121637611e-05
-53881.62821466694,1.3501521635473286e-05
-53841.08993218703,1.3670459851921983e-05
-53800.551649707115,1.3839942370633651e-05
-53760.0133672272,1.4007393069484222e-05
-53719.47508474728,1.4174528169671758e-05
-53678.936802267366,1.4341432461184473e-05
-53638.39851978746,1.4505318816980383e-05
-53597.86023730754,1.46663961656508e-05
-53557.321954827625,1.4830906473717711e-05
-53516.78367234771,1.499270656046575e-05
-53476.24538986779,1.5153957020463584e-05
-53435.70710738788,1.531458098736072e-05
-53395.16882490797,1.5478219878472214e-05
-53354.63054242805,1.5642251279653654e-05
-53314.092259948135,1.580398973594518e-05
-53273.55397746822,1.5968979926184027e-05
-53233.01569498831,1.613401591971604e-05
-53192.47741250839,1.629740259135692e-05
-53151.93913002848,1.6458468201257628e-05
-53111.40084754856,1.661932022559481e-05
-53070.862565068644,1.6782127485538734e-05
-53030.324282588736,1.6945699869552297e-05
-52989.78600010882,1.7110791391675866e-05
-52949.2477176289,1.7275028583568258e-05
-52908.70943514899,1.743791233715638e-05
-52868.17115266907,1.7603060311900416e-05
-52827.63287018916,1.7771252454990116e-05
-52787.094587709245,1.794227965069603e-05
-52746.55630522933,1.8116742511618526e-05
-52706.01802274941,1.8295897225025416e-05
-52665.4797402695,1.8475769939125814e-05
-52624.94145778959,1.8654721467671668e-05
-52584.40317530967,1.883363735304207e-05
-52543.864892829755,1.9014370643413525e-05
-52503.32661034984,1.919726736940108e-05
-52462.78832786993,1.9383302574314457e-05
-52422.250045390014,1.9572122262622517e-05
-52381.7117629101,1.9762519137618657e-05
-52341.17348043018,1.9951463106311738e-05
-52300.635197950265,2.0137917697198757e-05
-52260.09691547035,2.0322492647224664e-05
-52219.55863299044,2.0508675572645705e-05
-52179.020350510524,2.069495763696295e-05
-52138.48206803061,2.088170262040253e-05
-52097.94378555069,2.1068678050280733e-05
-52057.40550307078,2.1256000233476407e-05
-52016.867220590866,2.1445210096646947e-05
-51976.32893811095,2.163620215629276e-05
-51935.79065563103,2.1831095863258668e-05
-51895.25237315112,2.202461447914957e-05
-51854.7140906712,2.2217352087443704e-05
-51814.17580819129,2.2409435294092463e-05
-51773.637525711376,2.2601407600165804e-05
-51733.09924323146,2.2792513999607364e-05
-51692.56096075154,2.2982300852750154e-05
-51652.022678271635,2.3171634568504767e-05
-51611.48439579172,2.336624576901412e-05
-51570.9461133118,2.3563868049130712e-05
-51530.407830831886,2.3758660779169837e-05
-51489.86954835197,2.3953007570367336e-05
-51449.33126587205,2.4146025978245792e-05
-51408.792983392144,2.4337091493231368e-05
-51368.25470091223,2.452582439945988e-05
-51327.71641843231,2.470998373681115e-05
-51287.178135952396,2.489399486980019e-05
-51246.63985347249,2.5083005521720542e-05
-51206.10157099257,2.5270156375774102e-05
-51165.563288512654,2.5461220170430704e-05
-51125.02500603274,2.566152866599673e-05
-51084.48672355282,2.5863554610387376e-05
-51043.948441072906,2.6065421895117886e-05
-51003.410158593,2.6264107602988936e-05
-50962.87187611308,2.6465944006604316e-05
-50922.333593633164,2.6670527040844703e-05
-50881.79531115325,2.6877939231901475e-05
-50841.25702867334,2.7088164243747785e-05
-50800.71874619342,2.729648810715813e-05
-50760.18046371351,2.750676389878583e-05
-50719.64218123359,2.771793436581089e-05
-50679.103898753674,2.7931168166005837e-05
-50638.56561627376,2.8138743814433935e-05
-50598.02733379385,2.8346288763720583e-05
-50557.48905131393,2.8552502888121953e-05
-50516.950768834016,2.8760917664746904e-05
-50476.4124863541,2.896978990897024e-05
-50435.87420387419,2.917682448806441e-05
-50395.335921394275,2.9380619642928446e-05
-50354.79763891436,2.9582134116368014e-05
-50314.25935643444,2.9784557192486308e-05
-50273.721073954526,2.9987344124583622e-05
-50233.18279147461,3.0190885816367236e-05
-50192.6445089947,3.039098839542215e-05
-50152.106226514785,3.0588092659676284e-05
-50111.56794403487,3.0784666205398846e-05
-50071.02966155495,3.0974637651310726e-05
-50030.49137907504,3.115977658708027e-05
-49989.95309659513,3.1345912754068114e-05
-49949.41481411521,3.15320929490897e-05
-49908.876531635295,3.1718874290302004e-05
-49868.33824915538,3.190971701646306e-05
-49827.79996667546,3.2095834811745946e-05
-49787.26168419555,3.227952150446605e-05
-49746.72340171564,3.246066130469107e-05
-49706.18511923572,3.264352765114279e-05
-49665.646836755805,3.282545956343119e-05
-49625.108554275896,3.3007828753825864e-05
-49584.57027179598,3.318665911627399e-05
-49544.03198931606,3.336267062081961e-05
-49503.49370683615,3.353309320198333e-05
-49462.95542435623,3.370121041624244e-05
-49422.417141876314,3.386794646521175e-05
-49381.878859396405,3.403707462007889e-05
-49341.34057691649,3.420476916819838e-05
-49300.80229443657,3.4370477394066123e-05
-49260.26401195666,3.453344202891073e-05
-49219.72572947675,3.469774161522497e-05
-49179.18744699683,3.485987308010968e-05
-49138.649164516915,3.501729033754308e-05
-49098.110882037,3.5171852750820016e-05
-49057.57259955708,3.53251506924106e-05
-49017.03431707717,3.547439026663666e-05
-48976.49603459726,3.562011111909151e-05
-48935.95775211734,3.57631258926466e-05
-48895.419469637425,3.590148296003686e-05
-48854.88118715751,3.603567549186323e-05
-48814.3429046776,3.616306776830135e-05
-48773.804622197684,3.6289224760195296e-05
-48733.26633971777,3.6414964145164524e-05
-48692.72805723785,3.654038212376499e-05
-48652.189774757935,3.666482733646733e-05
-48611.65149227802,3.678560121083097e-05
-48571.11320979811,3.6908776518877546e-05
-48530.574927318194,3.7030020314431286e-05
-48490.03664483828,3.7153628821863e-05
-48449.49836235836,3.727595789081841e-05
-48408.96007987845,3.739783329883257e-05
-48368.421797398536,3.752248931336854e-05
-48327.88351491862,3.7649541408186795e-05
-48287.3452324387,3.7783487301349975e-05
-48246.80694995879,3.7916631907215106e-05
-48206.26866747887,3.80461273029887e-05
-48165.73038499896,3.817320090871427e-05
-48125.192102519046,3.829751568406282e-05
-48084.65382003913,3.84210717100929e-05
-48044.11553755921,3.854230429222744e-05
-48003.577255079304,3.865941597761537e-05
-47963.03897259939,3.8769830961179166e-05
-47922.50069011947,3.887687452321706e-05
-47881.962407639556,3.8985176398040265e-05
-47841.42412515964,3.908928311024445e-05
-47800.88584267972,3.91910844163237e-05
-47760.347560199814,3.928947031271967e-05
-47719.8092777199,3.938842211108604e-05
-47679.27099523998,3.94844907484935e-05
-47638.732712760066,3.957732845170286e-05
-47598.19443028016,3.967294581329924e-05
-47557.65614780024,3.9767335267768314e-05
-47517.117865320324,3.9857441418705036e-05
-47476.57958284041,3.994747083795439e-05
-47436.04130036049,4.003362819918172e-05
-47395.503017880575,4.0114581000448824e-05
-47354.96473540067,4.019102496862729e-05
-47314.42645292075,4.02607401457081e-05
-47273.888170440834,4.033047578883646e-05
-47233.34988796092,4.0404387598781326e-05
-47192.81160548101,4.04786622118253e-05
-47152.27332300109,4.054657449463145e-05
-47111.73504052118,4.0612389543023574e-05
-47071.19675804126,4.066992941395366e-05
-47030.658475561344,4.072582117028916e-05
-46990.12019308143,4.077712304370069e-05
-46949.58191060152,4.083039023093122e-05
-46909.0436281216,4.0880766270379256e-05
-46868.505345641686,4.092685575139248e-05
-46827.96706316177,4.097352031422363e-05
-46787.42878068186,4.101952643137709e-05
-46746.890498201945,4.106485281322287e-05
-46706.35221572203,4.110793886313118e-05
-46665.81393324211,4.114389443334859e-05
-46625.275650762196,4.117696908131415e-05
-46584.73736828228,4.120288041145675e-05
-46544.19908580237,4.122458652285e-05
-46503.660803322455,4.124131135886914e-05
-46463.12252084254,4.125332332484739e-05
-46422.58423836262,4.126003747823646e-05
-46382.04595588271,4.1267130937119325e-05
-46341.5076734028,4.1270184094332656e-05
-46300.96939092288,4.126798528515456e-05
-46260.431108442965,4.1266857846632475e-05
-46219.89282596305,4.1267006125608e-05
-46179.35454348313,4.1263537300670665e-05
-46138.81626100322,4.125566520978634e-05
-46098.27797852331,4.12431655170657e-05
-46057.73969604339,4.122916576011834e-05
-46017.201413563474,4.120881025317399e-05
-45976.663131083566,4.118242624658586e-05
-45936.12484860365,4.115770001941676e-05
-45895.58656612373,4.113073481501948e-05
-45855.04828364382,4.109953587088869e-05
-45814.5100011639,4.107629740311402e-05
-45773.971718683984,4.105357671637368e-05
-45733.433436204075,4.103671390284239e-05
-45692.89515372416,4.101781097649562e-05
-45652.35687124424,4.099474924437124e-05
-45611.81858876433,4.0963817187729405e-05
-45571.28030628442,4.092716988022768e-05
-45530.7420238045,4.0886052565021584e-05
-45490.203741324585,4.083691753121437e-05
-45449.66545884467,4.0782235233868324e-05
-45409.12717636475,4.072730046464588e-05
-45368.58889388484,4.0667191413947635e-05
-45328.05061140493,4.06025511389614e-05
-45287.51232892501,4.05389758650901e-05
-45246.974046445095,4.046997429036154e-05
-45206.43576396518,4.0397160229758775e-05
-45165.89748148527,4.031935448334266e-05
-45125.359199005354,4.024112027297191e-05
-45084.82091652544,4.015858418552843e-05
-45044.28263404552,4.007409067541563e-05
-45003.744351565605,3.998981890632683e-05
-44963.20606908569,3.990073367518083e-05
-44922.66778660578,3.980741779247659e-05
-44882.12950412586,3.970925236518281e-05
-44841.59122164595,3.960860751720882e-05
-44801.05293916603,3.9505630282740484e-05
-44760.51465668612,3.940231603634549e-05
-44719.976374206206,3.9297459156726685e-05
-44679.43809172629,3.918958294478866e-05
-44638.89980924637,3.907708583471293e-05
-44598.36152676646,3.896781806562616e-05
-44557.82324428654,3.886047189798798e-05
-44517.28496180663,3.875328177886314e-05
-44476.746679326716,3.864747319709717e-05
-44436.2083968468,3.8543636305208766e-05
-44395.67011436688,3.8441150381032564e-05
-44355.131831886974,3.8340667533005945e-05
-44314.59354940706,3.824112440798079e-05
-44274.05526692714,3.814325460468397e-05
-44233.516984447226,3.8044701367237295e-05
-44192.97870196731,3.795167842153145e-05
-44152.44041948739,3.786339713851576e-05
-44111.902137007484,3.7774555487413765e-05
-44071.36385452757,3.768295122658435e-05
-44030.82557204765,3.758692098805475e-05
-43990.287289567736,3.748669940733529e-05
-43949.74900708783,3.738706148009986e-05
-43909.21072460791,3.728869787649584e-05
-43868.672442127994,3.719197295025415e-05
-43828.13415964808,3.709552857796456e-05
-43787.59587716816,3.6997943356868606e-05
-43747.057594688245,3.690428614518382e-05
-43706.51931220833,3.6811956748783995e-05
-43665.98102972842,3.671954610832707e-05
-43625.442747248504,3.6623247552521435e-05
-43584.904464768595,3.652583513777995e-05
-43544.36618228868,3.642662560591699e-05
-43503.82789980876,3.6326784640330496e-05
-43463.289617328846,3.6226150638686985e-05
-43422.75133484893,3.61234366806392e-05
-43382.213052369014,3.602026252466943e-05
-43341.6747698891,3.5921545960801386e-05
-43301.13648740918,3.5826087142051664e-05
-43260.59820492927,3.5729660622812696e-05
-43220.059922449356,3.563384227224299e-05
-43179.52163996945,3.553478054658159e-05
-43138.98335748953,3.5435000842268924e-05
-43098.445075009615,3.533292341070373e-05
-43057.9067925297,3.522670165594856e-05
-43017.36851004978,3.512134458885746e-05
-42976.830227569866,3.5019164833980454e-05
-42936.29194508995,3.4916800578399535e-05
-42895.753662610034,3.4821966672592156e-05
-42855.215380130125,3.4739903530685614e-05
-42814.67709765021,3.465905137472027e-05
-42774.1388151703,3.458612297055256e-05
-42733.60053269038,3.451215323674242e-05
-42693.06225021047,3.443874336070216e-05
-42652.52396773055,3.437046035921713e-05
-42611.985685250635,3.431166862205206e-05
-42571.44740277072,3.425809452891937e-05
-42530.9091202908,3.420161815293496e-05
-42490.370837810886,3.414729840137568e-05
-42449.83255533098,3.4093238574822726e-05
-42409.29427285106,3.403960773050735e-05
-42368.75599037115,3.398097631071998e-05
-42328.217707891235,3.392712018937719e-05
-42287.67942541132,3.38704456441228e-05
-42247.1411429314,3.3816066244197454e-05
-42206.60286045149,3.376702878750196e-05
-42166.06457797157,3.371817444113608e-05
-42125.526295491654,3.3666667646499466e-05
-42084.98801301174,3.361581627280323e-05
-42044.44973053183,3.356757079339583e-05
-42003.91144805191,3.3520538887038363e-05
-41963.373165572004,3.3476097202178506e-05
-41922.83488309209,3.3431139092229215e-05
-41882.29660061217,3.338482926388574e-05
-41841.758318132255,3.334068982594522e-05
-41801.22003565234,3.329040664163462e-05
-41760.68175317242,3.323841745062237e-05
-41720.14347069251,3.3191382955477755e-05
-41679.60518821259,3.3152563690689724e-05
-41639.06690573268,3.3117649914051194e-05
-41598.528623252765,3.308947556792196e-05
-41557.990340772856,3.305931506403429e-05
-41517.45205829294,3.3028730405706643e-05
-41476.913775813024,3.299756050505781e-05
-41436.37549333311,3.297534310514626e-05
-41395.83721085319,3.2956400558429566e-05
-41355.298928373275,3.293845329421521e-05
-41314.76064589336,3.2923902455009095e-05
-41274.22236341344,3.2907748656405704e-05
-41233.68408093353,3.288819097351906e-05
-41193.14579845362,3.287261694873711e-05
-41152.60751597371,3.2857164817476135e-05
-41112.06923349379,3.284804115563614e-05
-41071.530951013876,3.2844582357288646e-05
-41030.99266853396,3.2847361105442076e-05
-40990.45438605404,3.285064471652244e-05
-40949.91610357413,3.285984099438335e-05
-40909.37782109421,3.2872401547966725e-05
-40868.839538614295,3.2887155473867015e-05
-40828.301256134386,3.290427533445191e-05
-40787.76297365447,3.292281751380289e-05
