grid,density
-52632.57935139974,1.7187575041570743e-07
-52593.595571566424,1.8203548388737224e-07
-52554.611791733114,1.920827548502116e-07
-52515.6280118998,2.0201756330422957e-07
-52476.64423206648,2.1183990924942387e-07
-52437.66045223317,2.2154979268579298e-07
-52398.67667239985,2.322068982895737e-07
-52359.692892566534,2.442213570471265e-07
-52320.709112733224,2.571115357967701e-07
-52281.72533289991,2.7330579735556236e-07
-52242.74155306659,2.9239992459391455e-07
-52203.75777323328,3.13046117419262e-07
-52164.77399339996,3.346281351298091e-07
-52125.790213566645,3.5783017842644957e-07
-52086.806433733334,3.8081910380385763e-07
-52047.82265390002,4.037591986584264e-07
-52008.8388740667,4.2772956924615905e-07
-51969.85509423339,4.514328413754315e-07
-51930.87131440007,4.7486901504625275e-07
-51891.887534566755,4.993752755262082e-07
-51852.903754733445,5.252435390523334e-07
-51813.91997490013,5.511712518819805e-07
-51774.93619506681,5.780223462453502e-07
-51735.9524152335,6.084344719613527e-07
-51696.96863540018,6.391738497720525e-07
-51657.984855566865,6.723753369112731e-07
-51619.001075733555,7.056695594759293e-07
-51580.01729590024,7.397626211740951e-07
-51541.03351606692,7.755602900977318e-07
-51502.04973623361,8.116911915224163e-07
-51463.06595640029,8.494422687160799e-07
-51424.082176566975,8.876538767744169e-07
-51385.098396733665,9.254156347974533e-07
-51346.11461690035,9.639300767587592e-07
-51307.13083706703,1.0022702412739362e-06
-51268.14705723372,1.04014649794021e-06
-51229.1632774004,1.0777233420215968e-06
-51190.179497567085,1.1189972702436537e-06
-51151.195717733775,1.161397635540617e-06
-51112.21193790046,1.2047669150536477e-06
-51073.22815806714,1.2476019976497673e-06
-51034.24437823383,1.2899028833289672e-06
-50995.26059840051,1.3316695720912642e-06
-50956.276818567196,1.375218806256505e-06
-50917.293038733886,1.4201563143845207e-06
-50878.30925890057,1.465172269820988e-06
-50839.32547906725,1.5106515344311355e-06
-50800.34169923393,1.5570122593775704e-06
-50761.35791940062,1.6027862223922825e-06
-50722.374139567306,1.6492060247422402e-06
-50683.390359733996,1.69588668731927e-06
-50644.40657990068,1.7427942291978038e-06
-50605.42280006736,1.7908824223677758e-06
-50566.439020234044,1.839752941531934e-06
-50527.45524040073,1.8891833116473762e-06
-50488.471460567416,1.938830908395428e-06
-50449.487680734106,1.9889875348449364e-06
-50410.50390090079,2.0393444134696867e-06
-50371.52012106747,2.0902476698566183e-06
-50332.536341234154,2.1414230335066595e-06
-50293.552561400844,2.193775600435579e-06
-50254.56878156753,2.2457173478836983e-06
-50215.58500173421,2.299042835964578e-06
-50176.6012219009,2.3545556154880035e-06
-50137.61744206758,2.4118236747004666e-06
-50098.633662234264,2.4735349954376697e-06
-50059.649882400954,2.5386692016870597e-06
-50020.66610256764,2.6087861172572908e-06
-49981.68232273432,2.6798452226521502e-06
-49942.69854290101,2.7519505033380024e-06
-49903.71476306769,2.8243542193599183e-06
-49864.730983234374,2.897379656699912e-06
-49825.747203401064,2.971664330015039e-06
-49786.76342356775,3.0468429707279647e-06
-49747.77964373443,3.1242256933211356e-06
-49708.79586390112,3.20451921087345e-06
-49669.8120840678,3.2879469190676215e-06
-49630.828304234485,3.371232346094621e-06
-49591.844524401175,3.4558173972316338e-06
-49552.86074456786,3.5405993926214053e-06
-49513.87696473454,3.6252421455397276e-06
-49474.89318490123,3.710546763435669e-06
-49435.90940506791,3.7946002359209643e-06
-49396.925625234595,3.877415285706822e-06
-49357.941845401285,3.960455793920657e-06
-49318.95806556797,4.043617515184388e-06
-49279.97428573465,4.129417848897721e-06
-49240.99050590134,4.215542425136561e-06
-49202.00672606802,4.303769012790041e-06
-49163.022946234705,4.390683099614205e-06
-49124.039166401395,4.477239212322464e-06
-49085.05538656808,4.562906052495879e-06
-49046.07160673476,4.648767631829942e-06
-49007.08782690145,4.737734735434686e-06
-48968.10404706813,4.83239064188841e-06
-48929.120267234815,4.92876195524744e-06
-48890.136487401505,5.025675910675418e-06
-48851.15270756819,5.124536688064191e-06
-48812.16892773487,5.2266129449904505e-06
-48773.18514790156,5.3271527020512965e-06
-48734.20136806824,5.428458261111003e-06
-48695.217588234926,5.531820495440598e-06
-48656.233808401616,5.637209780034635e-06
-48617.2500285683,5.7433595111005235e-06
-48578.26624873498,5.8505038782561e-06
-48539.28246890167,5.959432509447448e-06
-48500.29868906835,6.071227276084104e-06
-48461.314909235036,6.184615273759362e-06
-48422.331129401726,6.2977925120622264e-06
-48383.34734956841,6.412953306877671e-06
-48344.36356973509,6.528131620882787e-06
-48305.37978990178,6.645310008947952e-06
-48266.39601006846,6.76247205782896e-06
-48227.412230235146,6.880734148237454e-06
-48188.428450401836,7.001350571356642e-06
-48149.44467056852,7.121644680195698e-06
-48110.4608907352,7.244624843685167e-06
-48071.47711090189,7.369139592322634e-06
-48032.493331068574,7.497118031232689e-06
-47993.50955123526,7.6254380581433684e-06
-47954.525771401946,7.753847265298748e-06
-47915.54199156863,7.88418431221886e-06
-47876.55821173531,8.018181970102239e-06
-47837.574431902,8.151488925468654e-06
-47798.590652068684,8.287968226008365e-06
-47759.60687223537,8.427232639449933e-06
-47720.62309240206,8.568429261043345e-06
-47681.63931256874,8.713893575127576e-06
-47642.65553273542,8.859029775651008e-06
-47603.67175290211,9.004086219439973e-06
-47564.687973068794,9.148912250228387e-06
-47525.70419323548,9.296177516202046e-06
-47486.72041340217,9.449094207777864e-06
-47447.73663356885,9.602734933100038e-06
-47408.75285373553,9.757074742336015e-06
-47369.76907390222,9.915598136879052e-06
-47330.785294068904,1.007646071223227e-05
-47291.80151423559,1.0237416385241223e-05
-47252.81773440227,1.0399470999052007e-05
-47213.83395456896,1.0564544095910187e-05
-47174.85017473564,1.0732380014282306e-05
-47135.86639490233,1.0901873438139877e-05
-47096.882615069015,1.1070688908481743e-05
-47057.8988352357,1.1240812649751991e-05
-47018.91505540238,1.1411992679014304e-05
-46979.93127556907,1.1581767684162238e-05
-46940.94749573575,1.1751781855845207e-05
-46901.96371590244,1.1925507125403e-05
-46862.979936069125,1.20983314632684e-05
-46823.99615623581,1.2272960797122035e-05
-46785.01237640249,1.2448614115323742e-05
-46746.02859656918,1.2623937578876701e-05
-46707.04481673586,1.2799328239054234e-05
-46668.06103690255,1.2975689570843343e-05
-46629.077257069235,1.315045733858768e-05
-46590.09347723592,1.3324624655072717e-05
-46551.1096974026,1.3496628768044928e-05
-46512.12591756929,1.3666189824019194e-05
-46473.14213773597,1.3835086969422778e-05
-46434.15835790266,1.4003367700314168e-05
-46395.174578069345,1.4174777478368054e-05
-46356.19079823603,1.4347721673197333e-05
-46317.20701840271,1.4518114797615435e-05
-46278.2232385694,1.468792652666475e-05
-46239.23945873608,1.4858063519012389e-05
-46200.25567890277,1.5029128967391572e-05
-46161.271899069456,1.5201466136824422e-05
-46122.28811923614,1.5373857506265834e-05
-46083.30433940282,1.554521516089094e-05
-46044.32055956951,1.5716769492721478e-05
-46005.33677973619,1.5891342689580415e-05
-45966.35299990288,1.606802442627161e-05
-45927.369220069566,1.624381984931858e-05
-45888.38544023625,1.6422106722878774e-05
-45849.40166040293,1.6599110779026575e-05
-45810.41788056962,1.677550148755485e-05
-45771.434100736304,1.695086512250149e-05
-45732.450320902986,1.712566804686868e-05
-45693.466541069676,1.7299849009495287e-05
-45654.48276123636,1.74746811021445e-05
-45615.49898140304,1.765008574511719e-05
-45576.51520156973,1.7830982728497144e-05
-45537.531421736414,1.8014252635490765e-05
-45498.5476419031,1.8198086725772035e-05
-45459.56386206979,1.8383210344211402e-05
-45420.58008223647,1.8574387547248726e-05
-45381.59630240315,1.8769247141287706e-05
-45342.61252256984,1.8964438023702345e-05
-45303.628742736524,1.9162023967122592e-05
-45264.64496290321,1.9360472782237585e-05
-45225.6611830699,1.9560275168944863e-05
-45186.67740323658,1.9764785446589824e-05
-45147.69362340326,1.9970003522673852e-05
-45108.70984356995,2.017415060335481e-05
-45069.726063736634,2.0378216870110778e-05
-45030.74228390332,2.0586769904822545e-05
-44991.75850407001,2.0795475721111616e-05
-44952.77472423669,2.1000782508355586e-05
-44913.79094440337,2.1207211293246926e-05
-44874.80716457006,2.1411338025888458e-05
-44835.823384736745,2.1615757995156217e-05
-44796.83960490343,2.1824716477491356e-05
-44757.85582507012,2.2036208971178053e-05
-44718.8720452368,2.2251322913188743e-05
-44679.88826540348,2.247080698262612e-05
-44640.90448557017,2.2690993671117927e-05
-44601.920705736855,2.291154191761948e-05
-44562.93692590354,2.312902106645754e-05
-44523.95314607023,2.3350417123261687e-05
-44484.96936623691,2.3569068937126363e-05
-44445.98558640359,2.3789806803714375e-05
-44407.00180657028,2.4006342194950287e-05
-44368.018026736965,2.4222422114202583e-05
-44329.03424690365,2.4438496709333036e-05
-44290.05046707034,2.4655703071456038e-05
-44251.06668723702,2.4869666500549963e-05
-44212.0829074037,2.5082795171213117e-05
-44173.09912757039,2.5295118684648678e-05
-44134.115347737075,2.5506083708360423e-05
-44095.13156790376,2.5717726045371564e-05
-44056.14778807045,2.593035078679771e-05
-44017.16400823713,2.6146107499036054e-05
-43978.18022840381,2.636750492468875e-05
-43939.196448570496,2.6591482803859195e-05
-43900.212668737186,2.6813135975030157e-05
-43861.22888890387,2.7035799043631518e-05
-43822.24510907056,2.7261865400793695e-05
-43783.26132923724,2.748738614498228e-05
-43744.27754940392,2.7712988227510886e-05
-43705.293769570606,2.793720359021481e-05
-43666.309989737296,2.8158027933019454e-05
-43627.32620990398,2.837428470318637e-05
-43588.34243007067,2.8588295120714184e-05
-43549.35865023735,2.879854284673946e-05
-43510.37487040403,2.9011783476259995e-05
-43471.391090570716,2.9227925595768067e-05
-43432.407310737406,2.9446444448613437e-05
-43393.42353090409,2.9663218289476586e-05
-43354.43975107078,2.9882917307049482e-05
-43315.45597123746,3.010339812071807e-05
-43276.472191404144,3.032326732026403e-05
-43237.48841157083,3.054226920226132e-05
-43198.504631737516,3.075893102476064e-05
-43159.5208519042,3.09749957481388e-05
-43120.53707207089,3.1186733980929254e-05
-43081.55329223757,3.140295002520278e-05
-43042.569512404254,3.1622998290617004e-05
-43003.58573257094,3.183946160464153e-05
-42964.60195273763,3.205192200717524e-05
-42925.61817290431,3.2258978084342544e-05
-42886.634393071,3.2466409912617e-05
-42847.65061323768,3.267454129338988e-05
-42808.666833404364,3.2882352272229184e-05
-42769.68305357105,3.30946399866042e-05
-42730.69927373774,3.330436344813023e-05
-42691.71549390442,3.3508092738086116e-05
-42652.73171407111,3.371134653493536e-05
-42613.74793423779,3.391164679089887e-05
-42574.764154404475,3.410663803595074e-05
-42535.78037457116,3.4297791768657054e-05
-42496.79659473785,3.448549051480974e-05
-42457.81281490453,3.466641383721734e-05
-42418.82903507122,3.484382647447068e-05
-42379.8452552379,3.501694999743192e-05
-42340.861475404585,3.518426713949467e-05
-42301.87769557127,3.534892493818667e-05
-42262.89391573796,3.551207985439054e-05
-42223.91013590464,3.5672109541304806e-05
-42184.92635607133,3.582628843665183e-05
-42145.94257623801,3.5975022932289646e-05
-42106.958796404695,3.611906374840668e-05
-42067.97501657138,3.6260399366984004e-05
-42028.99123673807,3.6398708163893865e-05
-41990.00745690475,3.653345457712031e-05
-41951.02367707144,3.6665094509046255e-05
-41912.03989723812,3.6792327206639716e-05
-41873.056117404805,3.69160891694629e-05
-41834.07233757149,3.703833693786427e-05
-41795.08855773818,3.7159264965974e-05
-41756.10477790486,3.7279056679908807e-05
-41717.12099807155,3.739655962556402e-05
-41678.13721823823,3.751056901950274e-05
-41639.153438404916,3.762210955382816e-05
-41600.1696585716,3.773115891857256e-05
-41561.18587873829,3.783648029474859e-05
-41522.20209890497,3.793772616102608e-05
-41483.21831907166,3.803434975242268e-05
-41444.23453923834,3.812720188127501e-05
-41405.250759405026,3.822169429546278e-05
-41366.26697957171,3.8316515981607725e-05
-41327.2831997384,3.8409084547690874e-05
-41288.29941990508,3.8501748113793587e-05
-41249.31564007177,3.8593806281347414e-05
-41210.33186023845,3.868387113597734e-05
-41171.348080405136,3.8768894054777395e-05
-41132.36430057182,3.884919395949552e-05
-41093.38052073851,3.89232633819368e-05
-41054.39674090519,3.899536231816356e-05
-41015.412961071874,3.906239834528332e-05
-40976.42918123856,3.912613724222807e-05
-40937.445401405246,3.918885878854859e-05
-40898.46162157193,3.92488726291299e-05
-40859.47784173862,3.929974949405533e-05
-40820.4940619053,3.934282753004447e-05
-40781.510282071984,3.937815988690917e-05
-40742.526502238674,3.940853720748861e-05
-40703.54272240536,3.943520106267891e-05
-40664.55894257204,3.9460002699393875e-05
-40625.57516273873,3.9481293102786986e-05
-40586.59138290541,3.94974330104685e-05
-40547.607603072094,3.951274669702972e-05
-40508.623823238784,3.9528696766606534e-05
-40469.64004340547,3.9540102965936624e-05
-40430.65626357215,3.9547031071828344e-05
-40391.67248373884,3.955522429829759e-05
-40352.68870390552,3.956053296585647e-05
-40313.704924072204,3.95597795586508e-05
-40274.721144238894,3.955707417342817e-05
-40235.73736440558,3.9551831755130456e-05
-40196.75358457226,3.954313876021228e-05
-40157.76980473894,3.952990473842673e-05
-40118.78602490563,3.9511546167261606e-05
-40079.802245072315,3.9489212680312876e-05
-40040.818465239005,3.946408280979918e-05
-40001.83468540569,3.9436548147792815e-05
-39962.85090557237,3.940582767857117e-05
-39923.86712573905,3.9372324662547465e-05
-39884.88334590574,3.933538348782604e-05
-39845.899566072425,3.929453669301661e-05
-39806.915786239115,3.925244222894717e-05
-39767.9320064058,3.9208606995934325e-05
-39728.94822657248,3.9162422229762074e-05
-39689.96444673916,3.911097555531775e-05
-39650.98066690585,3.905600505401977e-05
-39611.996887072535,3.900345054420248e-05
-39573.013107239225,3.8949301160337746e-05
-39534.02932740591,3.8890241708953486e-05
-39495.04554757259,3.882921847168449e-05
-39456.06176773927,3.876564713434436e-05
-39417.07798790596,3.870231526676329e-05
-39378.094208072645,3.863968264509229e-05
-39339.110428239335,3.85706574988803e-05
-39300.12664840602,3.849517488614065e-05
-39261.1428685727,3.841641893781051e-05
-39222.15908873938,3.833642442180515e-05
-39183.17530890607,3.825700466201123e-05
-39144.191529072756,3.817380033403187e-05
-39105.207749239446,3.8091473325375596e-05
-39066.22396940613,3.800761394415735e-05
-39027.24018957281,3.792066375325413e-05
-38988.25640973949,3.782940454661062e-05
-38949.27262990618,3.773497008136938e-05
-38910.288850072866,3.763683217884831e-05
-38871.305070239556,3.7536919670888395e-05
-38832.32129040624,3.7435374902157004e-05
-38793.33751057292,3.733089772022477e-05
-38754.3537307396,3.722553355568187e-05
-38715.36995090629,3.7115666309852995e-05
-38676.386171072976,3.6998760691852425e-05
-38637.402391239666,3.6878989395309335e-05
-38598.41861140635,3.675849160604696e-05
-38559.43483157303,3.663662610226123e-05
-38520.451051739714,3.6513809285028e-05
-38481.467271906404,3.63923552562034e-05
-38442.48349207309,3.6270798323657475e-05
-38403.499712239776,3.61479586377723e-05
-38364.51593240646,3.602284960001356e-05
-38325.53215257314,3.5892717952854545e-05
-38286.548372739824,3.575642414621744e-05
-38247.564592906514,3.5614548116304204e-05
-38208.5808130732,3.5468822213548345e-05
-38169.59703323989,3.532038176216495e-05
-38130.61325340657,3.516870598713839e-05
-38091.62947357325,3.502081443501463e-05
-38052.645693739934,3.487119676831511e-05
-38013.661913906624,3.471497746126692e-05
-37974.67813407331,3.4554373371492715e-05
-37935.69435424,3.4393101034305394e-05
-37896.71057440668,3.423078209091501e-05
-37857.72679457336,3.4067735505540517e-05
-37818.743014740045,3.390009723620881e-05
-37779.759234906734,3.373098157962876e-05
-37740.77545507342,3.356118772731857e-05
-37701.79167524011,3.339148679194173e-05
-37662.80789540679,3.322290537764631e-05
-37623.82411557347,3.3051426839009713e-05
-37584.840335740155,3.287940740996223e-05
-37545.856555906845,3.2705040019709124e-05
-37506.87277607353,3.2530551972491065e-05
-37467.88899624022,3.235403398548855e-05
-37428.9052164069,3.217740642184389e-05
-37389.92143657358,3.199860007122767e-05
-37350.937656740265,3.181638062820927e-05
-37311.953876906955,3.1633708216489936e-05
-37272.97009707364,3.145578494514234e-05
-37233.98631724033,3.127816515045396e-05
-37195.00253740701,3.1099624957611433e-05
-37156.01875757369,3.092393518063162e-05
-37117.034977740375,3.075347159415826e-05
-37078.051197907065,3.058526887684969e-05
-37039.06741807375,3.0415910984857126e-05
-37000.08363824043,3.0245581356479056e-05
-36961.09985840712,3.0075181473211857e-05
-36922.1160785738,2.9905262192467084e-05
-36883.132298740486,2.9737995564828666e-05
-36844.148518907175,2.9568513306267136e-05
-36805.16473907386,2.9395258149029882e-05
-36766.18095924054,2.9219617923556225e-05
-36727.19717940723,2.9046448356491954e-05
-36688.21339957391,2.887652043646618e-05
-36649.229619740596,2.87050854639363e-05
-36610.245839907286,2.8534797453224374e-05
-36571.26206007397,2.8363899120347937e-05
-36532.27828024065,2.8191729113221704e-05
-36493.29450040734,2.8019838981642494e-05
-36454.31072057402,2.784883065518411e-05
-36415.326940740706,2.7681346596394114e-05
-36376.343160907396,2.7517239205994552e-05
-36337.35938107408,2.73549075390833e-05
-36298.37560124076,2.71968219063116e-05
-36259.39182140745,2.703746013430532e-05
-36220.408041574134,2.6882107234137783e-05
-36181.424261740816,2.672275989155554e-05
-36142.4404819075,2.6565809863604053e-05
-36103.45670207419,2.640843395732099e-05
-36064.47292224088,2.62563979724409e-05
-36025.48914240756,2.6108908051320227e-05
-35986.505362574244,2.596187988277094e-05
-35947.52158274093,2.5813652380539623e-05
-35908.53780290761,2.5665849812739854e-05
-35869.5540230743,2.551879366323367e-05
-35830.57024324099,2.5372117367566492e-05
-35791.58646340767,2.522568198392031e-05
-35752.602683574354,2.5081660034403153e-05
-35713.61890374104,2.4942477848250033e-05
-35674.63512390772,2.4805744185474207e-05
-35635.65134407441,2.4669892923547257e-05
-35596.66756424109,2.4532910240255414e-05
-35557.68378440778,2.4399378381150544e-05
-35518.700004574464,2.427096210405154e-05
-35479.71622474115,2.414919787766228e-05
-35440.73244490783,2.4032513978118732e-05
-35401.74866507452,2.391782613063561e-05
-35362.7648852412,2.38049617945602e-05
-35323.78110540789,2.3689450173489963e-05
-35284.797325574575,2.357077624665397e-05
-35245.81354574126,2.344893203750358e-05
-35206.82976590794,2.333331075817828e-05
-35167.84598607463,2.3221568227086007e-05
-35128.86220624131,2.3109305622487335e-05
-35089.878426408,2.2998157414265165e-05
-35050.894646574685,2.289167244416899e-05
-35011.91086674137,2.2788809261434157e-05
-34972.92708690805,2.2689262766026866e-05
-34933.94330707474,2.2593723269382627e-05
-34894.95952724142,2.2498606731812266e-05
-34855.97574740811,2.2404374474442585e-05
-34816.991967574795,2.2309588201327383e-05
-34778.00818774148,2.2224794795670236e-05
-34739.02440790816,2.2148264352586203e-05
-34700.04062807485,2.20730820243678e-05
-34661.05684824153,2.1997894132792823e-05
-34622.07306840822,2.192021463498075e-05
-34583.089288574905,2.1842252244634026e-05
-34544.10550874159,2.177067220026657e-05
-34505.12172890827,2.1703879806201775e-05
-34466.13794907496,2.165052714612155e-05
-34427.15416924164,2.1601500716736234e-05
-34388.17038940833,2.1549053650896632e-05
-34349.186609575016,2.1499944586422225e-05
-34310.2028297417,2.1455927088021956e-05
-34271.21904990838,2.141625325500405e-05
-34232.23527007507,2.138038627869947e-05
-34193.25149024175,2.1348003147087235e-05
-34154.26771040844,2.1315440043708284e-05
-34115.283930575126,2.1288966015697044e-05
-34076.30015074181,2.126604624495123e-05
-34037.31637090849,2.124607568521529e-05
-33998.33259107518,2.1234998702119065e-05
-33959.34881124186,2.1228803818289014e-05
