grid,density
-21327.601101638193,0.0
-21286.989160527297,0.0
-21246.377219416398,0.0
-21205.765278305502,0.0
-21165.153337194606,9.570510015602018e-10
-21124.54139608371,5.284784483489291e-09
-21083.92945497281,1.0578163095031845e-08
-21043.317513861915,1.739802802831974e-08
-21002.70557275102,2.4130042180495493e-08
-20962.09363164012,3.077420555155966e-08
-20921.481690529225,3.7330518141511105e-08
-20880.86974941833,4.379897995035039e-08
-20840.25780830743,5.0179590978078114e-08
-20799.645867196534,5.647235122469309e-08
-20759.033926085638,6.26772606901959e-08
-20718.421984974742,6.879431937458662e-08
-20677.810043863843,7.482352727786572e-08
-20637.198102752947,8.07648844000321e-08
-20596.58616164205,8.661839074108633e-08
-20555.974220531152,9.238404630102892e-08
-20515.362279420257,9.806185107985887e-08
-20474.75033830936,1.0365180507757664e-07
-20434.13839719846,1.1073021464124802e-07
-20393.526456087566,1.1844272293398405e-07
-20352.91451497667,1.2603809685190387e-07
-20312.302573865774,1.3351633639500756e-07
-20271.690632754875,1.4087744156329566e-07
-20231.07869164398,1.4812141235676686e-07
-20190.466750533084,1.552482487754219e-07
-20149.854809422184,1.6225795081926138e-07
-20109.24286831129,1.6915051848828403e-07
-20068.630927200393,1.7592595178249048e-07
-20028.018986089493,1.8258425070188133e-07
-19987.407044978598,1.8912541524645532e-07
-19946.795103867702,1.9554944541621317e-07
-19906.183162756806,2.0185634121115478e-07
-19865.571221645907,2.0824335227679795e-07
-19824.95928053501,2.1663163000273558e-07
-19784.347339424115,2.2611650829240488e-07
-19743.735398313216,2.3651442185271367e-07
-19703.12345720232,2.467366338507973e-07
-19662.511516091425,2.567831442866566e-07
-19621.899574980525,2.666539531602925e-07
-19581.28763386963,2.7634906047170316e-07
-19540.675692758734,2.876629813083851e-07
-19500.06375164784,3.0207160026202036e-07
-19459.45181053694,3.203254213760218e-07
-19418.839869426043,3.4159403222005947e-07
-19378.227928315147,3.639590971015285e-07
-19337.615987204248,3.8597275885855086e-07
-19297.004046093352,4.076350174911227e-07
-19256.392104982457,4.311588227778912e-07
-19215.78016387156,4.54408456382463e-07
-19175.16822276066,4.777127874736313e-07
-19134.556281649766,5.025137038833819e-07
-19093.94434053887,5.269046499812759e-07
-19053.33239942797,5.508856257673154e-07
-19012.720458317075,5.744566312414961e-07
-18972.10851720618,5.976176664038199e-07
-18931.49657609528,6.203687312542891e-07
-18890.884634984384,6.450183321194915e-07
-18850.27269387349,6.69238423167387e-07
-18809.66075276259,6.930192603097236e-07
-18769.048811651694,7.163608435464977e-07
-18728.436870540798,7.408247046934907e-07
-18687.824929429902,7.655862230291402e-07
-18647.212988319003,7.89879203865527e-07
-18606.601047208107,8.137036472026472e-07
-18565.98910609721,8.382504648035274e-07
-18525.377164986312,8.634409633433612e-07
-18484.765223875416,8.881336407902241e-07
-18444.15328276452,9.12328497144118e-07
-18403.541341653625,9.360255324050435e-07
-18362.929400542725,9.619435480731172e-07
-18322.31745943183,9.935621179092922e-07
-18281.705518320934,1.0272090984362546e-06
-18241.093577210035,1.060211839901731e-06
-18200.48163609914,1.0939381172166538e-06
-18159.869694988243,1.1279532751273792e-06
-18119.257753877344,1.1612949103829137e-06
-18078.64581276645,1.1939630229832526e-06
-18038.033871655553,1.2272931956591346e-06
-17997.421930544653,1.2609155646022097e-06
-17956.809989433757,1.2938351272963847e-06
-17916.19804832286,1.3260518837416624e-06
-17875.586107211966,1.3589035364766228e-06
-17834.974166101067,1.3936322872985052e-06
-17794.36222499017,1.4316332498728566e-06
-17753.750283879275,1.4724624635125873e-06
-17713.138342768376,1.519730697356644e-06
-17672.52640165748,1.5703602247199462e-06
-17631.914460546584,1.6199941098973108e-06
-17591.30251943569,1.668632352888737e-06
-17550.69057832479,1.717686651566072e-06
-17510.078637213894,1.7699119551357464e-06
-17469.466696102998,1.8224292321574525e-06
-17428.8547549921,1.8738630162121117e-06
-17388.242813881203,1.9244118583183986e-06
-17347.630872770307,1.9759942907658347e-06
-17307.018931659408,2.02646394665252e-06
-17266.406990548512,2.0758208259784473e-06
-17225.795049437616,2.1308705249463505e-06
-17185.183108326717,2.187188524763867e-06
-17144.57116721582,2.2443540021277595e-06
-17103.959226104926,2.300504083006308e-06
-17063.34728499403,2.357014235939841e-06
-17022.73534388313,2.41479905262537e-06
-16982.123402772235,2.4717346975809273e-06
-16941.51146166134,2.5286417612596516e-06
-16900.89952055044,2.5884237401546528e-06
-16860.287579439544,2.6507287515540905e-06
-16819.67563832865,2.7158108912373743e-06
-16779.063697217753,2.7814887684219083e-06
-16738.451756106853,2.8463398470063536e-06
-16697.839814995958,2.9118142242427335e-06
-16657.227873885062,2.9757365710128e-06
-16616.615932774163,3.0400378365129468e-06
-16576.003991663267,3.105468061839015e-06
-16535.39205055237,3.1731058185333986e-06
-16494.780109441475,3.239902920981155e-06
-16454.168168330576,3.305030858587784e-06
-16413.55622721968,3.3684896313532756e-06
-16372.944286108783,3.433100143099405e-06
-16332.332344997885,3.502159331949943e-06
-16291.72040388699,3.571998487486856e-06
-16251.108462776094,3.6423948011207303e-06
-16210.496521665194,3.71223851101865e-06
-16169.884580554299,3.7868812881133427e-06
-16129.272639443403,3.866225798209267e-06
-16088.660698332505,3.946981854846457e-06
-16048.048757221608,4.028488147429753e-06
-16007.436816110712,4.107886021266355e-06
-15966.824874999815,4.18554436574748e-06
-15926.212933888917,4.264038749326215e-06
-15885.600992778021,4.3455314683532826e-06
-15844.989051667126,4.4279329355517845e-06
-15804.377110556226,4.5080795660350814e-06
-15763.76516944533,4.588081480668327e-06
-15723.153228334435,4.67045879716831e-06
-15682.541287223537,4.757498142247796e-06
-15641.92934611264,4.845757375768426e-06
-15601.317405001744,4.939244026028165e-06
-15560.705463890847,5.030537918554906e-06
-15520.09352277995,5.122608865741708e-06
-15479.481581669053,5.218363703831003e-06
-15438.869640558158,5.314837881736678e-06
-15398.257699447258,5.411919482245482e-06
-15357.645758336363,5.508540726592611e-06
-15317.033817225467,5.610395088152365e-06
-15276.42187611457,5.716436935733579e-06
-15235.809935003672,5.82483323808811e-06
-15195.197993892776,5.9313350675520805e-06
-15154.586052781879,6.040929491507576e-06
-15113.974111670981,6.15395474256394e-06
-15073.362170560085,6.273130493639893e-06
-15032.75022944919,6.3917010966923485e-06
-14992.138288338292,6.51065928288776e-06
-14951.526347227395,6.630748165916974e-06
-14910.914406116499,6.754625956524912e-06
-14870.302465005601,6.881025514024809e-06
-14829.690523894704,7.005340161222357e-06
-14789.078582783808,7.133004365340413e-06
-14748.46664167291,7.260783711312576e-06
-14707.854700562013,7.390723427014208e-06
-14667.242759451117,7.52933918733506e-06
-14626.630818340222,7.666949210076948e-06
-14586.018877229324,7.809312452511922e-06
-14545.406936118427,7.95304430678128e-06
-14504.79499500753,8.096763528975178e-06
-14464.183053896633,8.23923193227485e-06
-14423.571112785736,8.381970898768627e-06
-14382.95917167484,8.522002112751469e-06
-14342.347230563943,8.659888492492656e-06
-14301.735289453045,8.802932737904042e-06
-14261.12334834215,8.941715681576566e-06
-14220.511407231254,9.078232393875467e-06
-14179.899466120356,9.214367146652205e-06
-14139.287525009458,9.352911331638173e-06
-14098.675583898563,9.492111731847697e-06
-14058.063642787665,9.631013296217353e-06
-14017.451701676768,9.768540761959463e-06
-13976.839760565872,9.909862466376702e-06
-13936.227819454974,1.0053308963678242e-05
-13895.615878344077,1.0196065878927312e-05
-13855.003937233181,1.033663699386565e-05
-13814.391996122285,1.0473632516008936e-05
-13773.780055011388,1.061352169073148e-05
-13733.16811390049,1.075061389718733e-05
-13692.556172789595,1.0884670436117196e-05
-13651.944231678697,1.1018320852210252e-05
-13611.3322905678,1.1155732892118204e-05
-13570.720349456904,1.1292290940702748e-05
-13530.108408346006,1.142749194621575e-05
-13489.496467235109,1.1558460591337443e-05
-13448.884526124213,1.1684453325716963e-05
-13408.272585013317,1.1809088970242416e-05
-13367.66064390242,1.1932992318538631e-05
-13327.048702791522,1.205683507382616e-05
-13286.436761680627,1.2180889000914383e-05
-13245.82482056973,1.2302380719687557e-05
-13205.212879458832,1.2424623172974342e-05
-13164.600938347936,1.2543686700602225e-05
-13123.988997237038,1.2662814168172254e-05
-13083.377056126143,1.2782250741333611e-05
-13042.765115015245,1.2906287129613009e-05
-13002.153173904348,1.303362933748673e-05
-12961.541232793452,1.3158917085584953e-05
-12920.929291682554,1.328465843989072e-05
-12880.317350571659,1.3404537781895219e-05
-12839.705409460761,1.3521219905183523e-05
-12799.093468349864,1.3641396520414663e-05
-12758.481527238968,1.3758956412511238e-05
-12717.86958612807,1.3871389577025548e-05
-12677.257645017175,1.398729373764395e-05
-12636.645703906277,1.4107790982815246e-05
-12596.033762795381,1.4230702879991736e-05
-12555.421821684484,1.4348929912925192e-05
-12514.809880573586,1.4464564797545685e-05
-12474.19793946269,1.4578702253811483e-05
-12433.585998351793,1.469215518433507e-05
-12392.974057240897,1.4803901702855012e-05
-12352.36211613,1.491232785265511e-05
-12311.750175019102,1.5022953568170919e-05
-12271.138233908207,1.5132323655624989e-05
-12230.526292797309,1.5236725655233254e-05
-12189.914351686413,1.5334363144695873e-05
-12149.302410575516,1.542784717664504e-05
-12108.690469464618,1.552303915024915e-05
-12068.078528353723,1.5615892559214556e-05
-12027.466587242825,1.570870157532533e-05
-11986.85464613193,1.5802548356861094e-05
-11946.242705021032,1.5891548857232572e-05
-11905.630763910134,1.5985782709977903e-05
-11865.018822799238,1.6082562587876946e-05
-11824.406881688341,1.618081466431982e-05
-11783.794940577445,1.6274821584463565e-05
-11743.182999466548,1.6368317556741113e-05
-11702.57105835565,1.6457834033762357e-05
-11661.959117244754,1.654216663792259e-05
-11621.347176133857,1.6620923834187586e-05
-11580.735235022961,1.6695781723810153e-05
-11540.123293912064,1.6766745148713337e-05
-11499.511352801166,1.6833361939861504e-05
-11458.89941169027,1.6896749136552486e-05
-11418.287470579373,1.6958300107347623e-05
-11377.675529468477,1.7020307868805603e-05
-11337.06358835758,1.708505087294553e-05
-11296.451647246682,1.7151742982177998e-05
-11255.839706135786,1.7216620205575335e-05
-11215.227765024889,1.7292449193264422e-05
-11174.615823913993,1.736664211525583e-05
-11134.003882803096,1.744508828006109e-05
-11093.391941692198,1.752461553200461e-05
-11052.780000581302,1.7605012542939237e-05
-11012.168059470405,1.7683819101087043e-05
-10971.55611835951,1.7757335957352303e-05
-10930.944177248612,1.7825786717426003e-05
-10890.332236137714,1.7894199222992556e-05
-10849.720295026818,1.7957504966236266e-05
-10809.10835391592,1.801371467164763e-05
-10768.496412805025,1.8073534658714445e-05
-10727.884471694128,1.8139311349419283e-05
-10687.27253058323,1.820159905753014e-05
-10646.660589472334,1.826165022835596e-05
-10606.048648361437,1.8316755408791555e-05
-10565.436707250541,1.8371013994402524e-05
-10524.824766139644,1.8423700653479808e-05
-10484.212825028746,1.847489750681875e-05
-10443.60088391785,1.8528380966609594e-05
-10402.988942806953,1.8577902855440792e-05
-10362.377001696057,1.862729816774292e-05
-10321.76506058516,1.8677035862985136e-05
-10281.153119474262,1.872349075343823e-05
-10240.541178363366,1.8766014207049917e-05
-10199.929237252469,1.8802127029930412e-05
-10159.317296141573,1.8833579539491677e-05
-10118.705355030675,1.886404377424853e-05
-10078.093413919778,1.8894821036651564e-05
-10037.481472808882,1.8927680661192997e-05
-9996.869531697985,1.8960673334003176e-05
-9956.257590587089,1.8988810901333123e-05
-9915.645649476191,1.9013438883776814e-05
-9875.033708365294,1.9037486487462234e-05
-9834.421767254398,1.9062254485425373e-05
-9793.8098261435,1.9084425177818296e-05
-9753.197885032605,1.910120874477335e-05
-9712.585943921707,1.9120804125832798e-05
-9671.97400281081,1.9146816597797505e-05
-9631.362061699914,1.9173838770128983e-05
-9590.750120589017,1.9195206466727455e-05
-9550.138179478121,1.921587031863856e-05
-9509.526238367223,1.9235928414724844e-05
-9468.914297256326,1.9253917138779222e-05
-9428.30235614543,1.927191204329534e-05
-9387.690415034533,1.9297723852866114e-05
-9347.078473923637,1.9325920378096347e-05
-9306.46653281274,1.9352862194337847e-05
-9265.854591701842,1.9384646067022976e-05
-9225.242650590946,1.941864718049733e-05
-9184.630709480049,1.9453054183683505e-05
-9144.018768369153,1.9493271217625403e-05
-9103.406827258255,1.9530743937872305e-05
-9062.79488614736,1.9570906350148098e-05
-9022.182945036462,1.9620429558398995e-05
-8981.571003925565,1.9673751709080774e-05
-8940.959062814669,1.9726586215167003e-05
-8900.347121703771,1.9774852830460078e-05
-8859.735180592876,1.9823005557701997e-05
-8819.123239481978,1.987763048784903e-05
-8778.51129837108,1.9935400738119305e-05
-8737.899357260185,1.9988043175854424e-05
-8697.287416149287,2.004278608868418e-05
-8656.675475038392,2.009933392079243e-05
-8616.063533927494,2.0163306575587958e-05
-8575.451592816597,2.0228509970384654e-05
-8534.8396517057,2.030122216160628e-05
-8494.227710594803,2.0378209992213624e-05
-8453.615769483908,2.045820852079367e-05
-8413.00382837301,2.05408993400451e-05
-8372.391887262113,2.062521041785613e-05
-8331.779946151217,2.0709054486875133e-05
-8291.16800504032,2.079373677632094e-05
-8250.556063929424,2.0877308614846887e-05
-8209.944122818526,2.097050512052339e-05
-8169.3321817076285,2.10718723868378e-05
-8128.720240596733,2.1175400665926506e-05
-8088.108299485835,2.128082363815235e-05
-8047.4963583749395,2.1385990320203188e-05
-8006.884417264042,2.1491860325030347e-05
-7966.272476153144,2.1604644695652564e-05
-7925.660535042249,2.1720474854052637e-05
-7885.048593931351,2.1828275143053508e-05
-7844.4366528204555,2.1937568966456282e-05
-7803.824711709558,2.2047367033188904e-05
-7763.21277059866,2.2158319040587376e-05
-7722.600829487765,2.2265367582563106e-05
-7681.988888376867,2.2378573042437583e-05
-7641.3769472659715,2.2499033425838536e-05
-7600.765006155074,2.261934280274588e-05
-7560.153065044176,2.2742235988345635e-05
-7519.541123933281,2.2872193840952398e-05
-7478.929182822383,2.3000176683238972e-05
-7438.317241711487,2.3125101793116985e-05
-7397.70530060059,2.325526887557833e-05
-7357.093359489692,2.338054815819241e-05
-7316.481418378797,2.350929164366864e-05
-7275.869477267899,2.3644829156891773e-05
-7235.257536157003,2.378879927251467e-05
-7194.645595046106,2.3934051654602716e-05
-7154.033653935208,2.408335643002867e-05
-7113.421712824313,2.424434219735701e-05
-7072.809771713415,2.4406898003367325e-05
-7032.197830602519,2.457276920123767e-05
-6991.585889491622,2.4746037164028775e-05
-6950.973948380724,2.4921374286484914e-05
-6910.362007269829,2.5095938140708184e-05
-6869.750066158931,2.5269989666682953e-05
-6829.138125048035,2.5464669188530654e-05
-6788.526183937138,2.5669329456915187e-05
-6747.91424282624,2.5876969613291578e-05
-6707.302301715345,2.6087407432644273e-05
-6666.690360604447,2.6301162564211073e-05
-6626.078419493551,2.651851281210193e-05
-6585.466478382654,2.6735057836160412e-05
-6544.854537271756,2.6952579556721196e-05
-6504.242596160861,2.7168059422945207e-05
-6463.630655049963,2.738276733577151e-05
-6423.018713939067,2.7600781679102977e-05
-6382.40677282817,2.7812743435294866e-05
-6341.794831717272,2.803347279198747e-05
-6301.1828906063765,2.824844206410717e-05
-6260.570949495479,2.846792412469651e-05
-6219.959008384583,2.8689829275568417e-05
-6179.347067273686,2.8913465853804584e-05
-6138.735126162788,2.9146210066697573e-05
-6098.1231850518925,2.9379990035215675e-05
-6057.511243940995,2.9616238986541086e-05
-6016.899302830099,2.9855547487922915e-05
-5976.287361719202,3.0089263884273434e-05
-5935.675420608304,3.032124001864665e-05
-5895.0634794974085,3.0544370012501335e-05
-5854.451538386511,3.0767463543521925e-05
-5813.839597275615,3.099426170760401e-05
-5773.227656164718,3.122492874375938e-05
-5732.61571505382,3.1460213954084444e-05
-5692.003773942924,3.16934514859502e-05
-5651.391832832027,3.1933920611533784e-05
-5610.779891721131,3.217112634239648e-05
-5570.167950610234,3.241212425281199e-05
-5529.556009499338,3.265322540114248e-05
-5488.94406838844,3.2895137281309593e-05
-5448.332127277543,3.315209262331675e-05
-5407.720186166647,3.34128705277843e-05
-5367.10824505575,3.367232504618855e-05
-5326.496303944854,3.393116120546127e-05
-5285.884362833956,3.4184623047453545e-05
-5245.272421723059,3.4432521854821426e-05
-5204.660480612163,3.4675952866722215e-05
-5164.048539501266,3.492273036837021e-05
-5123.43659839037,3.5172050168986656e-05
-5082.824657279472,3.542622778497761e-05
-5042.212716168575,3.568164565502647e-05
-5001.600775057679,3.593703686938632e-05
-4960.988833946782,3.61857269785779e-05
-4920.376892835884,3.643735797463471e-05
-4879.764951724988,3.669577512015659e-05
-4839.153010614093,3.694656588077271e-05
-4798.541069503193,3.719450189940855e-05
-4757.929128392298,3.7440548556334573e-05
-4717.317187281402,3.769323531484301e-05
-4676.7052461705025,3.7954379689928827e-05
-4636.093305059607,3.822207703433419e-05
-4595.481363948711,3.849399577110315e-05
-4554.869422837815,3.8776116780678785e-05
-4514.257481726916,3.906262825200417e-05
-4473.64554061602,3.93426509221154e-05
-4433.033599505125,3.962181978421541e-05
-4392.421658394225,3.989466426753064e-05
-4351.8097172833295,4.0159769014473126e-05
-4311.197776172434,4.042315234826918e-05
-4270.585835061534,4.0689396698562315e-05
-4229.973893950639,4.0954100922668065e-05
-4189.361952839743,4.122261450010511e-05
-4148.750011728847,4.149798994307723e-05
-4108.138070617948,4.177880660777094e-05
-4067.5261295070522,4.20593569358655e-05
-4026.9141883961565,4.234229778973288e-05
-3986.302247285257,4.263295878091283e-05
-3945.6903061743615,4.292268491733382e-05
-3905.0783650634658,4.320927834645163e-05
-3864.46642395257,4.350310670926414e-05
-3823.8544828416707,4.380193116203425e-05
-3783.242541730775,4.4098125122650925e-05
-3742.6306006198793,4.4386677961631284e-05
-3702.01865950898,4.4664209375052734e-05
-3661.406718398084,4.4934985400906665e-05
-3620.7947772871885,4.5198710959793326e-05
-3580.182836176289,4.5462022353622343e-05
-3539.5708950653934,4.572312218669409e-05
-3498.9589539544977,4.5979815149521845e-05
-3458.347012843602,4.622406495531022e-05
-3417.7350717327026,4.6457641540461155e-05
-3377.123130621807,4.668921127924003e-05
-3336.511189510911,4.6915452217364196e-05
-3295.899248400012,4.7135245242574175e-05
-3255.287307289116,4.7355477817311714e-05
-3214.6753661782204,4.7575379236372256e-05
-3174.063425067321,4.780506063305115e-05
-3133.4514839564254,4.8024381680964645e-05
-3092.8395428455296,4.823587889987502e-05
-3052.227601734634,4.844834225908863e-05
-3011.6156606237346,4.865209819007443e-05
-2971.003719512839,4.885396590910379e-05
-2930.391778401943,4.904841822583503e-05
-2889.779837291044,4.924152211974113e-05
-2849.167896180148,4.942426944859168e-05
-2808.5559550692524,4.960662545527902e-05
-2767.944013958353,4.978551705737377e-05
-2727.3320728474573,4.995666609331507e-05
-2686.7201317365616,5.012339870601844e-05
-2646.108190625666,5.028869971305674e-05
-2605.4962495147665,5.045669465239761e-05
-2564.884308403871,5.0633651588978e-05
-2524.272367292975,5.0815316814001554e-05
-2483.6604261820758,5.0996465852247434e-05
-2443.04848507118,5.1182948537640684e-05
-2402.4365439602843,5.135646746397033e-05
-2361.824602849385,5.1520122847805945e-05
-2321.2126617384893,5.1677907062756584e-05
-2280.6007206275935,5.1825460111885054e-05
-2239.988779516698,5.1962146106965165e-05
-2199.3768384057985,5.208857830795641e-05
-2158.7648972949028,5.2207290134519515e-05
-2118.152956184007,5.232345640239658e-05
-2077.5410150731077,5.243748028457974e-05
-2036.929073962212,5.254750226204622e-05
-1996.3171328513163,5.2657042553172467e-05
-1955.705191740417,5.2760118297688136e-05
