grid,density
-25575.15911540522,1.4684033973972828e-08
-25545.92711696207,1.7384835298395318e-08
-25516.69511851892,2.005299854034747e-08
-25487.46312007577,2.268852369982954e-08
-25458.23112163262,2.5291410776840964e-08
-25428.99912318947,2.786165977138201e-08
-25399.767124746322,3.0399270683452694e-08
-25370.53512630317,3.2904243513053325e-08
-25341.30312786002,3.537657826018328e-08
-25312.071129416872,3.7816274924842883e-08
-25282.839130973724,4.022333350703213e-08
-25253.60713253057,4.420048029694749e-08
-25224.375134087422,4.939589849481397e-08
-25195.143135644274,5.5011039597353996e-08
-25165.911137201125,6.294222438713145e-08
-25136.679138757972,7.077549492949875e-08
-25107.447140314824,7.851085122445405e-08
-25078.215141871675,8.614829327199819e-08
-25048.983143428526,9.520217442704185e-08
-25019.751144985374,1.0549842859094206e-07
-24990.519146542225,1.1566413042495954e-07
-24961.287148099076,1.256992799290956e-07
-24932.055149655927,1.3560387710335015e-07
-24902.823151212775,1.453779219477245e-07
-24873.591152769626,1.5502141446221615e-07
-24844.359154326477,1.6453435464682638e-07
-24815.12715588333,1.7391674250155515e-07
-24785.89515744018,1.8316857802640251e-07
-24756.663158997027,1.9228986122136953e-07
-24727.43116055388,2.0170616474306773e-07
-24698.19916211073,2.1480094051603152e-07
-24668.96716366758,2.320930505045535e-07
-24639.73516522443,2.491566939157849e-07
-24610.50316678128,2.659918707497217e-07
-24581.27116833813,2.8259858100636597e-07
-24552.039169894982,2.9897682468571765e-07
-24522.80717145183,3.151266017877788e-07
-24493.57517300868,3.3168848056322097e-07
-24464.343174565533,3.5024588149358266e-07
-24435.111176122384,3.7129692410041793e-07
-24405.87917767923,3.9504444062841685e-07
-24376.647179236083,4.184655763317092e-07
-24347.415180792934,4.4239855129249533e-07
-24318.183182349785,4.688922552088423e-07
-24288.951183906633,4.984902065270073e-07
-24259.719185463484,5.290874675292202e-07
-24230.487187020335,5.592604334593185e-07
-24201.255188577186,5.890091043173019e-07
-24172.023190134038,6.183334801031708e-07
-24142.791191690885,6.480258928741285e-07
-24113.559193247736,6.793645156194991e-07
-24084.327194804588,7.102462052102847e-07
-24055.09519636144,7.406709616464852e-07
-24025.863197918286,7.706387849281044e-07
-23996.631199475138,8.001496750551349e-07
-23967.39920103199,8.2920363202758e-07
-23938.16720258884,8.578006558454404e-07
-23908.935204145688,8.864846018259697e-07
-23879.70320570254,9.186782388274945e-07
-23850.47120725939,9.529925149907075e-07
-23821.23920881624,9.910236876938193e-07
-23792.00721037309,1.0285551037732933e-06
-23762.77521192994,1.0680440062702092e-06
-23733.54321348679,1.1115070516688288e-06
-23704.311215043643,1.1557815166487574e-06
-23675.07921660049,1.2011272781855242e-06
-23645.84721815734,1.249754634474635e-06
-23616.615219714193,1.3030814203114091e-06
-23587.383221271044,1.3577003022037317e-06
-23558.151222827895,1.4145098270263952e-06
-23528.919224384743,1.47422557201887e-06
-23499.687225941594,1.534537380202872e-06
-23470.455227498445,1.5953241714034273e-06
-23441.223229055293,1.6587796590353693e-06
-23411.991230612144,1.7233309085952153e-06
-23382.759232168995,1.7868703775984813e-06
-23353.527233725847,1.849398066045165e-06
-23324.295235282698,1.910913973935268e-06
-23295.063236839545,1.9715325133581994e-06
-23265.831238396397,2.036639330939298e-06
-23236.599239953248,2.1007983986680182e-06
-23207.3672415101,2.1667495465608877e-06
-23178.135243066947,2.2315936982652036e-06
-23148.903244623798,2.2953281551655183e-06
-23119.67124618065,2.360192675408148e-06
-23090.4392477375,2.427425970704415e-06
-23061.207249294348,2.4934842950317576e-06
-23031.9752508512,2.560165071660276e-06
-23002.74325240805,2.6278807983457854e-06
-22973.5112539649,2.698963518312013e-06
-22944.279255521753,2.7693037818750096e-06
-22915.0472570786,2.840706535915414e-06
-22885.81525863545,2.913673693249297e-06
-22856.583260192303,2.9853045890844632e-06
-22827.35126174915,3.056432886449411e-06
-22798.119263306,3.129900679182711e-06
-22768.887264862853,3.2031998879808665e-06
-22739.655266419704,3.2752079147331863e-06
-22710.423267976556,3.3502136592219068e-06
-22681.191269533403,3.4249936326131362e-06
-22651.959271090254,3.4983048922931924e-06
-22622.727272647106,3.5701474382620803e-06
-22593.495274203957,3.640521270519804e-06
-22564.263275760804,3.712038641125879e-06
-22535.031277317656,3.782317178023139e-06
-22505.799278874507,3.851094363126764e-06
-22476.567280431358,3.918370196436752e-06
-22447.335281988206,3.98414467795311e-06
-22418.103283545057,4.048417807675825e-06
-22388.871285101908,4.111594433086109e-06
-22359.63928665876,4.180503310191933e-06
-22330.40728821561,4.25166822492296e-06
-22301.17528977246,4.321201235530477e-06
-22271.94329132931,4.390883379164127e-06
-22242.71129288616,4.462876028950451e-06
-22213.47929444301,4.533171498448327e-06
-22184.24729599986,4.601769787657733e-06
-22155.01529755671,4.668670896578685e-06
-22125.783299113562,4.734924013048929e-06
-22096.551300670413,4.801290685308572e-06
-22067.31930222726,4.867715354711991e-06
-22038.087303784112,4.938898119942825e-06
-22008.855305340963,5.0114480573140105e-06
-21979.623306897814,5.084631247120194e-06
-21950.391308454662,5.161392547305813e-06
-21921.159310011513,5.236858100860455e-06
-21891.927311568365,5.312930645448033e-06
-21862.695313125216,5.387322297495384e-06
-21833.463314682063,5.459723026512048e-06
-21804.231316238915,5.530176175397465e-06
-21774.999317795766,5.601466373506985e-06
-21745.767319352617,5.6714619222068e-06
-21716.535320909465,5.741568554036428e-06
-21687.303322466316,5.8106009398232085e-06
-21658.071324023167,5.879455860019622e-06
-21628.83932558002,5.946221942937935e-06
-21599.607327136866,6.0108991885781546e-06
-21570.375328693717,6.0750099628571895e-06
-21541.14333025057,6.141235913375749e-06
-21511.91133180742,6.205307750451266e-06
-21482.67933336427,6.268309817522244e-06
-21453.44733492112,6.3309329526724755e-06
-21424.21533647797,6.391369336297187e-06
-21394.98333803482,6.449618968396381e-06
-21365.75133959167,6.505681848970068e-06
-21336.51934114852,6.559557978018232e-06
-21307.28734270537,6.6114563924239674e-06
-21278.055344262222,6.667681638082259e-06
-21248.823345819073,6.726511745232477e-06
-21219.59134737592,6.789750799372521e-06
-21190.359348932772,6.85237725887038e-06
-21161.127350489623,6.915036818088688e-06
-21131.895352046475,6.975676844647951e-06
-21102.663353603326,7.0338690150219395e-06
-21073.431355160174,7.093866856071646e-06
-21044.199356717025,7.15374341469698e-06
-21014.967358273876,7.2130838498018325e-06
-20985.735359830724,7.270252454866357e-06
-20956.503361387575,7.330137158989655e-06
-20927.271362944426,7.3901641191299645e-06
-20898.039364501277,7.4506450707075365e-06
-20868.80736605813,7.509991073762138e-06
-20839.575367614976,7.56877988875019e-06
-20810.343369171827,7.633958000821605e-06
-20781.11137072868,7.697888202072142e-06
-20751.879372285526,7.759328598432303e-06
-20722.647373842377,7.820447623650427e-06
-20693.41537539923,7.880975045937168e-06
-20664.18337695608,7.939195685623172e-06
-20634.95137851293,7.99519418845074e-06
-20605.71938006978,8.05314319280719e-06
-20576.48738162663,8.108806112061531e-06
-20547.25538318348,8.16463530058847e-06
-20518.02338474033,8.220593919698916e-06
-20488.79138629718,8.277208406317354e-06
-20459.55938785403,8.331934176474734e-06
-20430.327389410882,8.384947726579524e-06
-20401.095390967734,8.439331444139987e-06
-20371.86339252458,8.490614543865777e-06
-20342.631394081433,8.538797025756876e-06
-20313.399395638284,8.587572294824807e-06
-20284.167397195135,8.635255224650799e-06
-20254.935398751986,8.680666252619892e-06
-20225.703400308834,8.727750892269134e-06
-20196.471401865685,8.771604361753811e-06
-20167.239403422536,8.812226661073924e-06
-20138.007404979384,8.851838460356882e-06
-20108.775406536235,8.893387090141251e-06
-20079.543408093086,8.93736820934819e-06
-20050.311409649938,8.979612990997748e-06
-20021.07941120679,9.024316830757544e-06
-19991.847412763636,9.068112940368128e-06
-19962.615414320488,9.109540607790373e-06
-19933.38341587734,9.154343929639894e-06
-19904.151417434186,9.203144787998353e-06
-19874.919418991038,9.25203815906533e-06
-19845.68742054789,9.302555789588699e-06
-19816.45542210474,9.357810328030296e-06
-19787.22342366159,9.414235722571035e-06
-19757.99142521844,9.468914672444829e-06
-19728.75942677529,9.52317545814427e-06
-19699.52742833214,9.575255639717911e-06
-19670.295429888993,9.625686230828408e-06
-19641.063431445844,9.675191985693686e-06
-19611.83143300269,9.726089369599802e-06
-19582.599434559543,9.777654422205333e-06
-19553.367436116394,9.831899224350127e-06
-19524.13543767324,9.888301815911851e-06
-19494.903439230093,9.948622744063987e-06
-19465.671440786944,1.000583983920754e-05
-19436.439442343795,1.0059042450207222e-05
-19407.207443900646,1.0108230577063055e-05
-19377.975445457494,1.0155295609487245e-05
-19348.743447014345,1.020226248494563e-05
-19319.511448571197,1.0252048099188076e-05
-19290.279450128044,1.0302225462775745e-05
-19261.047451684895,1.0354061851560148e-05
-19231.815453241747,1.0407501440132117e-05
-19202.583454798598,1.045916271397333e-05
-19173.35145635545,1.050805963015908e-05
-19144.119457912297,1.056287614692625e-05
-19114.887459469148,1.0625310490941818e-05
-19085.655461026,1.068659485151523e-05
-19056.42346258285,1.0743625114962363e-05
-19027.1914641397,1.0801534066149353e-05
-18997.95946569655,1.0858548073252255e-05
-18968.7274672534,1.0917145961102946e-05
-18939.49546881025,1.0974012737403833e-05
-18910.2634703671,1.1029309880069401e-05
-18881.03147192395,1.1081178841370488e-05
-18851.7994734808,1.1136152190929834e-05
-18822.567475037653,1.1193850743238385e-05
-18793.335476594504,1.1253439242581876e-05
-18764.10347815135,1.1312398709140471e-05
-18734.871479708203,1.1375980159013327e-05
-18705.639481265054,1.1443008050808786e-05
-18676.4074828219,1.151142987484773e-05
-18647.175484378753,1.158991255546289e-05
-18617.943485935604,1.1665111059200078e-05
-18588.711487492455,1.1743577521022476e-05
-18559.479489049307,1.182619555383156e-05
-18530.247490606154,1.1909000551627536e-05
-18501.015492163006,1.1988716163553463e-05
-18471.783493719857,1.20700573723204e-05
-18442.551495276704,1.215226373795179e-05
-18413.31949683356,1.2231634377924142e-05
-18384.087498390407,1.23100113132136e-05
-18354.855499947258,1.2392230531630816e-05
-18325.62350150411,1.24711672290446e-05
-18296.391503060957,1.2549350301196426e-05
-18267.159504617808,1.2631768552785198e-05
-18237.92750617466,1.2712299715047283e-05
-18208.69550773151,1.279202367605968e-05
-18179.463509288362,1.2869850548652996e-05
-18150.23151084521,1.2946538012873907e-05
-18120.99951240206,1.3028102008776881e-05
-18091.767513958912,1.3117353611089823e-05
-18062.53551551576,1.3206064659650505e-05
-18033.30351707261,1.3305977401095327e-05
-18004.071518629462,1.3409878362276037e-05
-17974.839520186313,1.3511061226005755e-05
-17945.607521743164,1.3614544380817817e-05
-17916.375523300012,1.3722840894663595e-05
-17887.143524856863,1.3830394509149845e-05
-17857.911526413714,1.3937158057104445e-05
-17828.679527970562,1.4043077513897198e-05
-17799.447529527413,1.4150478113585029e-05
-17770.215531084265,1.4259624940151445e-05
-17740.983532641116,1.4374000619176765e-05
-17711.751534197967,1.4501254127652495e-05
-17682.519535754815,1.4628442859789257e-05
-17653.287537311666,1.4752115113715262e-05
-17624.055538868517,1.4877761232856693e-05
-17594.82354042537,1.5004492001918189e-05
-17565.59154198222,1.5133596052911588e-05
-17536.359543539067,1.526501623749526e-05
-17507.12754509592,1.5399346133590587e-05
-17477.89554665277,1.553203125851224e-05
-17448.663548209617,1.5663442048311488e-05
-17419.43154976647,1.579009099337882e-05
-17390.19955132332,1.5917525710982772e-05
-17360.96755288017,1.6044267644121446e-05
-17331.735554437022,1.617745273260428e-05
-17302.50355599387,1.6311635781363585e-05
-17273.27155755072,1.644829400146943e-05
-17244.039559107572,1.6584409579305804e-05
-17214.80756066442,1.6716966953896196e-05
-17185.575562221275,1.685451301456029e-05
-17156.343563778122,1.6998946582221252e-05
-17127.111565334973,1.7147102074892013e-05
-17097.879566891825,1.7296914372978448e-05
-17068.647568448672,1.745620143798441e-05
-17039.415570005523,1.7619289834819494e-05
-17010.183571562375,1.7781633329584748e-05
-16980.951573119222,1.7945329190325778e-05
-16951.719574676077,1.8114532625205964e-05
-16922.487576232925,1.8284571825401215e-05
-16893.255577789776,1.8450162635717774e-05
-16864.023579346627,1.8621413047415068e-05
-16834.791580903475,1.879219904574515e-05
-16805.559582460326,1.8964842581597924e-05
-16776.327584017177,1.9141999939722324e-05
-16747.095585574025,1.932329269002698e-05
-16717.86358713088,1.9507163183989143e-05
-16688.631588687727,1.9691872762634724e-05
-16659.39959024458,1.9874528538422155e-05
-16630.16759180143,2.0053141111453915e-05
-16600.935593358277,2.023181896484095e-05
-16571.703594915132,2.041244546028788e-05
-16542.47159647198,2.0594225840530785e-05
-16513.23959802883,2.0772962819731583e-05
-16484.007599585682,2.0947657516371788e-05
-16454.77560114253,2.111475772000298e-05
-16425.54360269938,2.127755052325607e-05
-16396.311604256232,2.144827633793475e-05
-16367.079605813082,2.1629801483104696e-05
-16337.847607369933,2.1807907733493115e-05
-16308.615608926782,2.198742769054638e-05
-16279.383610483634,2.217573449941836e-05
-16250.151612040483,2.2366825232981846e-05
-16220.919613597334,2.2563955591754815e-05
-16191.687615154184,2.2758230631913047e-05
-16162.455616711035,2.2948025202766206e-05
-16133.223618267884,2.3141239091119943e-05
-16103.991619824736,2.3339470342103946e-05
-16074.759621381585,2.354008174382076e-05
-16045.527622938436,2.3743314725576275e-05
-16016.295624495287,2.3941326258812786e-05
-15987.063626052137,2.413506147829211e-05
-15957.831627608988,2.432182336946282e-05
-15928.599629165838,2.450536898492395e-05
-15899.367630722689,2.469382534219892e-05
-15870.135632279538,2.4881222306665102e-05
-15840.90363383639,2.506630824914088e-05
-15811.671635393239,2.5253794363271312e-05
-15782.43963695009,2.544315862869957e-05
-15753.20763850694,2.5632739842869617e-05
-15723.97564006379,2.581812009912757e-05
-15694.74364162064,2.5996615553712463e-05
-15665.511643177491,2.616929390722513e-05
-15636.27964473434,2.634579372811044e-05
-15607.047646291192,2.6520469211048115e-05
-15577.815647848041,2.669176977625644e-05
-15548.583649404893,2.6862406955468786e-05
-15519.351650961742,2.7041248726872233e-05
-15490.119652518593,2.721404788322077e-05
-15460.887654075443,2.738556179684319e-05
-15431.655655632294,2.7558819640435004e-05
-15402.423657189143,2.772518395531641e-05
-15373.191658745995,2.788823918829826e-05
-15343.959660302846,2.8049991385379523e-05
-15314.727661859695,2.820889275830882e-05
-15285.495663416546,2.8361683812851173e-05
-15256.263664973396,2.8508751052945332e-05
-15227.031666530247,2.8659502594990766e-05
-15197.799668087097,2.8806522546289708e-05
-15168.567669643948,2.894806768400214e-05
-15139.335671200797,2.9085298688502686e-05
-15110.103672757648,2.9218977481087704e-05
-15080.871674314498,2.9358201807542993e-05
-15051.639675871349,2.949577394154281e-05
-15022.407677428198,2.963032548597897e-05
-14993.17567898505,2.9757512450173526e-05
-14963.943680541899,2.987717605239344e-05
-14934.71168209875,2.9999812154157733e-05
-14905.4796836556,3.0123087083756428e-05
-14876.247685212451,3.024473792341411e-05
-14847.0156867693,3.036936546307158e-05
-14817.783688326152,3.0487418201376047e-05
-14788.551689883001,3.060303938464741e-05
-14759.319691439852,3.072375664591651e-05
-14730.087692996702,3.084866248565578e-05
-14700.855694553553,3.097129095128465e-05
-14671.623696110404,3.109083202409255e-05
-14642.391697667254,3.1214484926199344e-05
-14613.159699224105,3.1337203194349464e-05
-14583.927700780954,3.145838134877182e-05
-14554.695702337805,3.157808301730077e-05
-14525.463703894655,3.1692063902848325e-05
-14496.231705451506,3.179885920788998e-05
-14466.999707008355,3.190125146673367e-05
-14437.767708565207,3.200247353915154e-05
-14408.535710122056,3.209981760221187e-05
-14379.303711678907,3.219986176742491e-05
-14350.071713235757,3.229900889024949e-05
-14320.839714792608,3.23977605711526e-05
-14291.607716349457,3.249692527191096e-05
-14262.375717906309,3.259067698952078e-05
-14233.143719463158,3.26818581874363e-05
-14203.91172102001,3.277578993419076e-05
-14174.679722576859,3.2865326072281824e-05
-14145.44772413371,3.2959395864776175e-05
-14116.21572569056,3.305218941188924e-05
-14086.98372724741,3.3139714557154057e-05
-14057.75172880426,3.321822171047428e-05
-14028.519730361111,3.329076103245855e-05
-13999.287731917962,3.336170630083746e-05
-13970.055733474812,3.344450953782882e-05
-13940.823735031663,3.352664662045671e-05
-13911.591736588513,3.3602765981291925e-05
-13882.359738145364,3.367148895484663e-05
-13853.127739702213,3.373487791024173e-05
-13823.895741259064,3.379425943827767e-05
-13794.663742815914,3.3860831928404344e-05
-13765.431744372765,3.3920190602674235e-05
-13736.199745929614,3.397588505095166e-05
-13706.967747486466,3.40242050217886e-05
-13677.735749043315,3.407102333928692e-05
-13648.503750600166,3.411985807888749e-05
-13619.271752157016,3.417114324710919e-05
-13590.039753713867,3.421678388910886e-05
-13560.807755270716,3.426313669143856e-05
-13531.575756827568,3.4303089210888866e-05
-13502.343758384417,3.433763775951468e-05
-13473.111759941268,3.4379477255412305e-05
-13443.879761498118,3.441646297088989e-05
-13414.647763054969,3.445602172021241e-05
-13385.415764611818,3.449682486656225e-05
-13356.18376616867,3.4536714207907506e-05
-13326.95176772552,3.456589840707887e-05
-13297.71976928237,3.459799969655648e-05
-13268.487770839221,3.4628186756968615e-05
-13239.25577239607,3.464788871434633e-05
-13210.023773952922,3.4660506852790326e-05
-13180.791775509771,3.467347992273467e-05
-13151.559777066623,3.467669190934973e-05
-13122.327778623472,3.467862200698259e-05
-13093.095780180323,3.46782796183185e-05
-13063.863781737173,3.466812802168759e-05
-13034.631783294024,3.465570053626579e-05
-13005.399784850873,3.4637954324210985e-05
-12976.167786407725,3.4615988785439634e-05
-12946.935787964574,3.459819504896413e-05
-12917.703789521425,3.458079855685371e-05
-12888.471791078275,3.455946467321944e-05
-12859.239792635126,3.455003439714512e-05
-12830.007794191975,3.454637671944532e-05
-12800.775795748827,3.453867378698441e-05
-12771.543797305676,3.4532472867779825e-05
-12742.311798862527,3.4524454539126515e-05
-12713.079800419377,3.451315452351946e-05
-12683.847801976228,3.4504260579592335e-05
-12654.615803533077,3.4499735119647056e-05
-12625.383805089929,3.448830792430025e-05
-12596.15180664678,3.4478597200087936e-05
-12566.91980820363,3.4473286652178285e-05
-12537.68780976048,3.447394150140191e-05
-12508.45581131733,3.4470521091570325e-05
-12479.223812874181,3.446590169803103e-05
-12449.99181443103,3.4460930586580144e-05
-12420.759815987882,3.445465315448746e-05
-12391.527817544731,3.445084246310833e-05
-12362.295819101582,3.443775316647075e-05
-12333.063820658432,3.4425159725374145e-05
-12303.831822215283,3.441325696215621e-05
-12274.599823772132,3.440017296087232e-05
-12245.367825328984,3.438626500287115e-05
-12216.135826885833,3.4365635384095205e-05
-12186.903828442684,3.434843531603465e-05
-12157.671829999534,3.433882780625244e-05
-12128.439831556385,3.432427522791807e-05
-12099.207833113234,3.4317469637234724e-05
-12069.975834670086,3.431126892067355e-05
-12040.743836226935,3.4296861889556664e-05
-12011.511837783786,3.427827177104229e-05
-11982.279839340636,3.425875920127323e-05
-11953.047840897487,3.4241877601699414e-05
-11923.815842454338,3.4231224773348376e-05
-11894.583844011187,3.422887274326254e-05
-11865.351845568039,3.422715367984887e-05
-11836.119847124888,3.4226332272620924e-05
-11806.88784868174,3.422700883848517e-05
-11777.655850238589,3.423661609378232e-05
-11748.42385179544,3.4246651796578886e-05
-11719.19185335229,3.425147064984485e-05
