grid,density
-375.66528819964066,0.0
-374.8834856137757,0.0
-374.1016830279108,0.0
-373.3198804420458,0.0
-372.53807785618085,0.0
-371.75627527031594,0.0
-370.974472684451,0.0
-370.19267009858606,0.0
-369.4108675127211,0.0
-368.62906492685613,0.0
-367.8472623409912,0.0
-367.06545975512626,0.0
-366.2836571692613,0.0
-365.5018545833964,0.0
-364.7200519975314,0.0
-363.93824941166645,0.0
-363.15644682580154,0.0
-362.3746442399366,0.0
-361.59284165407166,0.0
-360.8110390682067,0.0
-360.02923648234173,0.0
-359.2474338964768,0.0
-358.46563131061185,0.0
-357.6838287247469,0.0
-356.902026138882,0.0
-356.120223553017,0.0
-355.3384209671521,2.483658413269807e-07
-354.55661838128714,4.952161990804477e-07
-353.77481579542217,7.976278103502528e-07
-352.99301320955726,1.285899267084391e-06
-352.2112106236923,1.765471151739145e-06
-351.42940803782733,2.2363434643144824e-06
-350.6476054519624,2.6985162048103712e-06
-349.86580286609745,3.151989373226874e-06
-349.08400028023254,3.596762969563928e-06
-348.3021976943676,4.032836993821595e-06
-347.5203951085026,4.460211445999847e-06
-346.7385925226377,4.878886326098653e-06
-345.95678993677274,5.2888616341180694e-06
-345.17498735090777,5.690137370058068e-06
-344.39318476504286,6.08271353391862e-06
-343.6113821791779,6.466590125699785e-06
-342.8295795933129,6.841767145401534e-06
-342.047777007448,7.208244593023837e-06
-341.26597442158305,7.56602246856675e-06
-340.48417183571814,7.91510077203022e-06
-339.7023692498532,8.255479503414298e-06
-338.9205666639882,8.587158662718959e-06
-338.1387640781233,8.91013824994418e-06
-337.35696149225834,9.393714139719436e-06
-336.57515890639337,9.947522266424697e-06
-335.79335632052846,1.0488281035010786e-05
-335.0115537346635,1.1015990445477792e-05
-334.2297511487985,1.1530650497825676e-05
-333.4479485629336,1.2032261192054392e-05
-332.66614597706865,1.2520822528164019e-05
-331.88434339120374,1.2996334506154486e-05
-331.1025408053388,1.3458797126025866e-05
-330.3207382194738,1.3908210387778115e-05
-329.5389356336089,1.4394879983864087e-05
-328.75713304774393,1.5068480750322153e-05
-327.97533046187897,1.5724682372621387e-05
-327.19352787601406,1.6363484850761742e-05
-326.4117252901491,1.6984888184743308e-05
-325.6299227042841,1.7588892374566035e-05
-324.8481201184192,1.8304369324588723e-05
-324.06631753255425,1.9122504139577185e-05
-323.28451494668934,1.9992015317369834e-05
-322.5027123608244,2.1055238609261023e-05
-321.7209097749594,2.2304155803678473e-05
-320.9391071890945,2.3522624495817874e-05
-320.15730460322953,2.47106446856794e-05
-319.3755020173646,2.586821637326289e-05
-318.59369943149966,2.69953395585685e-05
-317.8118968456347,2.8292423722751442e-05
-317.0300942597697,2.995627833016941e-05
-316.2482916739048,3.173164896957363e-05
-315.46648908803985,3.3463521748580885e-05
-314.68468650217494,3.5151896667190946e-05
-313.90288391631,3.679677372540402e-05
-313.121081330445,3.839815292322002e-05
-312.3392787445801,3.9956034260638836e-05
-311.55747615871513,4.147041773766065e-05
-310.7756735728502,4.3145301461705446e-05
-309.99387098698526,4.482031335577974e-05
-309.2120684011203,4.644747760341723e-05
-308.4302658152553,4.8026794204617935e-05
-307.6484632293904,4.9558263159381726e-05
-306.86666064352545,5.104188446770883e-05
-306.08485805766054,5.2519208951098336e-05
-305.3030554717956,5.41575719847611e-05
-304.5212528859306,5.574373758594735e-05
-303.7394503000657,5.727770575465697e-05
-302.95764771420073,5.910704432835731e-05
-302.1758451283358,6.103291701503557e-05
-301.39404254247086,6.289789269715806e-05
-300.6122399566059,6.470197137472464e-05
-299.8304373707409,6.646547436480668e-05
-299.048634784876,6.839856134336215e-05
-298.26683219901105,7.061573873123417e-05
-297.48502961314614,7.291460018293799e-05
-296.7032270272812,7.513951527196695e-05
-295.9214244414162,7.729048399832087e-05
-295.1396218555513,7.939605336260552e-05
-294.35781926968633,8.164979019862643e-05
-293.5760166838214,8.382523088593245e-05
-292.79421409795646,8.592237542452385e-05
-292.0124115120915,8.794122381440049e-05
-291.2306089262266,8.988177605556222e-05
-290.4488063403616,9.175351786984049e-05
-289.6670037544967,9.403227700816235e-05
-288.88520116863174,9.623150948187346e-05
-288.1033985827668,9.834374623479042e-05
-287.3215959969018,0.00010036898726691319
-286.5397934110369,0.00010235172238818109
-285.75799082517193,0.00010445335838469662
-284.976188239307,0.00010646364887437807
-284.19438565344205,0.00010838259385722584
-283.4125830675771,0.00011021019333323965
-282.6307804817122,0.00011194644730241953
-281.8489778958472,0.00011359135576476565
-281.0671753099823,0.0001151449187202777
-280.28537272411734,0.00011660713616895605
-279.50357013825237,0.00011800416670133315
-278.7217675523874,0.00011953439505823097
-277.9399649665225,0.00012117973577869796
-277.15816238065753,0.00012280249437175142
-276.3763597947926,0.00012456373905292311
-275.59455720892765,0.00012644689965538586
-274.8127546230627,0.00012822131560685587
-274.0309520371978,0.0001298869869073331
-273.2491494513328,0.00013144391355681767
-272.4673468654679,0.00013289209555530947
-271.68554427960294,0.0001342315329028086
-270.90374169373797,0.00013546222559931504
-270.121939107873,0.00013658417364482877
-269.3401365220081,0.00013759737703934966
-268.55833393614313,0.00013850183578287796
-267.7765313502782,0.00013929754987541352
-266.99472876441325,0.00013998451931695633
-266.2129261785483,0.0001407538258366048
-265.4311235926834,0.00014167664238515863
-264.6493210068184,0.00014265854078546062
-263.8675184209535,0.00014369946843192778
-263.08571583508854,0.00014482879936836228
-262.30391324922357,0.0001460343045935971
-261.5221106633586,0.0001475664205678735
-260.7403080774937,0.00014911656373588897
-259.9585054916287,0.00015078158134994185
-259.1767029057638,0.00015260952470989581
-258.39490031989885,0.00015451956203244323
-257.6130977340339,0.00015629475598775963
-256.831295148169,0.00015817184119490532
-256.049492562304,0.00015992440185615969
-255.26768997643907,0.00016174370904706526
-254.48588739057413,0.0001635240740229724
-253.70408480470917,0.00016555639696418475
-252.92228221884426,0.00016773565667154347
-252.1404796329793,0.00016975832408147273
-251.35867704711436,0.0001716243991939725
-250.57687446124942,0.0001733338820090428
-249.79507187538445,0.0001750227983297273
-249.0132692895195,0.00017666790150826768
-248.23146670365458,0.00017815206260333885
-247.4496641177896,0.00017947528161494088
-246.66786153192467,0.0001807589715121159
-245.88605894605973,0.00018246534305480433
-245.1042563601948,0.00018412059976672502
-244.32245377432983,0.00018579977831424294
-243.5406511884649,0.0001873093152062122
-242.75884860259995,0.00018864921044263274
-241.97704601673502,0.00018981946402350463
-241.19524343087005,0.00019109393453459872
-240.4134408450051,0.00019242247851739689
-239.63163825914017,0.000193789982265865
-238.84983567327524,0.00019550177381599587
-238.06803308741027,0.0001973287534193641
-237.28623050154533,0.0001991755602747927
-236.5044279156804,0.00020083097654447407
-235.72262532981543,0.00020285773632487865
-234.9408227439505,0.00020512526581812824
-234.15902015808555,0.00020735533589429306
-233.37721757222062,0.00021010283207984883
-232.59541498635565,0.0002133018672387401
-231.8136124004907,0.00021667589997104313
-231.03180981462577,0.00022004342204950587
-230.25000722876084,0.00022342509299657314
-229.46820464289587,0.00022712673180346575
-228.68640205703093,0.00023100275593680814
-227.904599471166,0.0002347868087245166
-227.12279688530106,0.000238384696412891
-226.3409942994361,0.00024209440803091623
-225.55919171357115,0.00024611002567430287
-224.77738912770621,0.0002501646108084199
-223.99558654184125,0.0002542270320543199
-223.2137839559763,0.00025812017972119217
-222.43198137011137,0.000261992656986894
-221.65017878424644,0.0002656744189836934
-220.86837619838147,0.00026936374977186233
-220.08657361251653,0.0002735177688472893
-219.3047710266516,0.0002781816701904339
-218.52296844078666,0.00028278420842074015
-217.7411658549217,0.00028711271013054515
-216.95936326905675,0.00029116717531984816
-216.1775606831918,0.0002953806285163085
-215.39575809732688,0.0002996120547635273
-214.6139555114619,0.00030413956550378387
-213.83215292559697,0.0003085722162315015
-213.05035033973203,0.0003128884139349813
-212.26854775386707,0.000317094171725073
-211.48674516800213,0.00032140914552942324
-210.7049425821372,0.00032555523647062194
-209.92313999627225,0.0003302903067080849
-209.1413374104073,0.00033564062896574765
-208.35953482454235,0.0003413420552369124
-207.5777322386774,0.0003470063605172805
-206.79592965281248,0.0003527475998851396
-206.0141270669475,0.00035843888639404154
-205.23232448108257,0.0003640427349960603
-204.45052189521763,0.00036938902482030713
-203.6687193093527,0.0003749239913208263
-202.88691672348773,0.0003805523570547131
-202.1051141376228,0.00038584578926354184
-201.32331155175785,0.0003910787323848696
-200.5415089658929,0.00039651820611867
-199.75970638002795,0.00040181106469422986
-198.977903794163,0.00040754594901489845
-198.19610120829807,0.00041363773349692873
-197.4142986224331,0.0004198193450166749
-196.63249603656817,0.00042580298384691824
-195.85069345070323,0.0004321516287172618
-195.0688908648383,0.0004391750588056646
-194.28708827897333,0.00044613812595810945
-193.5052856931084,0.00045309379234789547
-192.72348310724345,0.00046005728705991766
-191.94168052137852,0.00046705629523731537
-191.15987793551355,0.00047388301088355667
-190.3780753496486,0.00048035790953486625
-189.59627276378367,0.0004867646034652756
-188.81447017791874,0.0004932719383018277
-188.03266759205377,0.0004999878394773198
-187.25086500618883,0.0005070291180449725
-186.4690624203239,0.0005146024116356247
-185.68725983445893,0.0005222723001806127
-184.905457248594,0.000529741794053102
-184.12365466272905,0.0005370652936922942
-183.34185207686411,0.0005439190164391978
-182.56004949099915,0.0005503724775634364
-181.7782469051342,0.0005566108838675109
-180.99644431926927,0.0005627558751356233
-180.21464173340433,0.0005686689743529882
-179.43283914753937,0.0005748776780962057
-178.65103656167443,0.0005812032694815987
-177.8692339758095,0.0005874555089446655
-177.08743138994456,0.0005938102754781337
-176.3056288040796,0.0005999065636472122
-175.52382621821465,0.0006060411491649241
-174.7420236323497,0.0006122057394223243
-173.96022104648475,0.0006186090123882017
-173.1784184606198,0.0006249102561656031
-172.39661587475487,0.0006311676600189008
-171.61481328888993,0.000637091137739395
-170.83301070302497,0.000642895613491009
-170.05120811716003,0.0006487073328534698
-169.2694055312951,0.0006541052344920933
-168.48760294543015,0.000659459025730164
-167.7058003595652,0.0006654534041742868
-166.92399777370025,0.0006712054960139166
-166.1421951878353,0.0006767474896502725
-165.36039260197037,0.0006822290826797579
-164.5785900161054,0.0006876936223622098
-163.79678743024047,0.0006939193982334672
-163.01498484437553,0.0007001782247940357
-162.23318225851057,0.0007067186519919364
-161.45137967264563,0.0007132264287922855
-160.6695770867807,0.0007197368177314322
-159.88777450091575,0.0007263698041885908
-159.1059719150508,0.000732738138960978
-158.32416932918585,0.0007389903627161812
-157.5423667433209,0.0007452944386784838
-156.76056415745597,0.0007513668848646124
-155.978761571591,0.0007571593943930515
-155.19695898572607,0.0007626677518686052
-154.41515639986113,0.0007679658664118126
-153.6333538139962,0.0007729628079546098
-152.85155122813123,0.0007774679084575525
-152.0697486422663,0.000782147824715095
-151.28794605640135,0.0007866964921162185
-150.50614347053641,0.0007910389789500426
-149.72434088467145,0.000795414773769343
-148.9425382988065,0.0007991974186227757
-148.16073571294157,0.0008038250155356206
-147.3789331270766,0.0008089121957303982
-146.59713054121167,0.0008140159011024077
-145.81532795534673,0.000818835540226394
-145.0335253694818,0.0008236615929726854
-144.25172278361683,0.0008292289372680701
-143.4699201977519,0.0008342526540391793
-142.68811761188695,0.0008390353958362088
-141.906315026022,0.0008441734453840063
-141.12451244015705,0.0008496989414554109
-140.3427098542921,0.0008557050027876207
-139.56090726842717,0.000862698028008089
-138.77910468256223,0.0008711503439993828
-137.99730209669727,0.0008799499317063065
-137.21549951083233,0.0008888318248394312
-136.4336969249674,0.0008974792017904575
-135.65189433910243,0.0009055446731237896
-134.8700917532375,0.0009135704764889226
-134.08828916737255,0.0009217643278923416
-133.3064865815076,0.0009297887816486543
-132.52468399564265,0.0009374847138851469
-131.7428814097777,0.0009456254979519189
-130.96107882391277,0.0009537502939714518
-130.17927623804783,0.0009618553794340626
-129.39747365218287,0.0009700507777827718
-128.61567106631793,0.0009786971489069312
-127.83386848045299,0.0009873363357614342
-127.05206589458805,0.0009962016474188923
-126.27026330872309,0.0010056641783802273
-125.48846072285815,0.001015732121419891
-124.70665813699321,0.0010264707130131878
-123.92485555112825,0.0010375474866627513
-123.14305296526331,0.001048771963228343
-122.36125037939837,0.0010594824345468985
-121.57944779353343,0.001069784055432516
-120.79764520766847,0.0010794530155211954
-120.01584262180353,0.001088933517743875
-119.23404003593856,0.0010986120667327208
-118.45223745007365,0.0011087925829686702
-117.67043486420869,0.0011201523143003216
-116.88863227834378,0.0011319817707984585
-116.10682969247881,0.001143682881682893
-115.32502710661385,0.0011553290510006558
-114.54322452074894,0.0011673279904097528
-113.76142193488397,0.0011795353540682368
-112.979619349019,0.0011918175432637744
-112.1978167631541,0.0012051942046263052
-111.41601417728913,0.001218254569868076
-110.63421159142416,0.0012312145913131994
-109.85240900555925,0.0012445568096333512
-109.07060641969429,0.0012585935508225908
-108.28880383382938,0.001273073518379972
-107.50700124796441,0.0012879470001171793
-106.72519866209944,0.001302867066768764
-105.94339607623454,0.0013174569796354397
-105.16159349036957,0.0013314445769007546
-104.3797909045046,0.001345840845140129
-103.5979883186397,0.0013602956105704857
-102.81618573277473,0.0013755066590776697
-102.03438314690982,0.0013920916409825177
-101.25258056104485,0.0014089712280006515
-100.47077797517989,0.0014254798725235403
-99.68897538931498,0.0014413805815392748
-98.90717280345001,0.0014564476906857103
-98.12537021758504,0.0014713108551086015
-97.34356763172013,0.0014867520199994247
-96.56176504585517,0.0015027248034314774
-95.7799624599902,0.0015189822130538971
-94.99815987412529,0.0015359315253440015
-94.21635728826033,0.0015531198365606256
-93.43455470239542,0.001570885975429618
-92.65275211653045,0.0015888665982219893
-91.87094953066548,0.0016075846728103918
-91.08914694480058,0.0016266976051445047
-90.30734435893561,0.001645781919782856
-89.52554177307064,0.0016641088083582235
-88.74373918720573,0.0016820310375031688
-87.96193660134077,0.0017008094938648082
-87.1801340154758,0.0017207429105244461
-86.39833142961089,0.001741897376186457
-85.61652884374593,0.001763547809796261
-84.83472625788102,0.0017852526209293407
-84.05292367201605,0.0018070380550080753
-83.27112108615108,0.0018289771737029698
-82.48931850028617,0.0018507131151035033
-81.70751591442121,0.0018730124962832086
-80.92571332855624,0.0018951433100155457
-80.14391074269133,0.0019176634687629998
-79.36210815682637,0.0019403668429119605
-78.58030557096146,0.0019628406429061645
-77.79850298509649,0.0019855363894439176
-77.01670039923152,0.0020091708901660444
-76.23489781336662,0.0020324882922278663
-75.45309522750165,0.0020552646047731537
-74.67129264163668,0.0020777285176109494
-73.88949005577177,0.0020999242062483903
-73.10768746990681,0.0021226825680387726
-72.32588488404184,0.002147013045953638
-71.54408229817693,0.002171381089083821
-70.76227971231197,0.0021957518460548925
-69.98047712644706,0.0022195694055994323
-69.19867454058209,0.0022436719403179975
-68.41687195471712,0.002268454390824315
-67.63506936885221,0.0022940352027827826
-66.85326678298725,0.002320240627643157
-66.07146419712228,0.002347214145680532
-65.28966161125737,0.0023740807193844
-64.5078590253924,0.0024006163144221345
-63.7260564395275,0.002426491206564074
-62.94425385366253,0.002451178734529926
-62.162451267797564,0.002475603394478427
-61.380648681932655,0.0025009478749203466
-60.59884609606769,0.0025269844968093
-59.81704351020272,0.0025527248688004774
-59.03524092433781,0.002577764640228446
-58.25343833847285,0.0026023170470953387
-57.47163575260788,0.002628077047714891
-56.68983316674297,0.002654576777225865
-55.908030580878005,0.002680881336306415
-55.126227995013096,0.0027065086200233797
-54.34442540914813,0.002732594268484843
-53.562622823283164,0.0027584336532141783
-52.780820237418254,0.002785172966319998
-51.99901765155329,0.002811601752475969
-51.21721506568832,0.0028374737254275883
-50.43541247982341,0.002863226601089523
-49.653609893958446,0.002888871838742993
-48.87180730809348,0.002915094625336524
-48.09000472222857,0.002942990335993597
-47.308202136363604,0.0029707579565817796
-46.526399550498695,0.002998656630562837
-45.74459696463373,0.00302645442384971
-44.96279437876876,0.003053693970972115
-44.18099179290385,0.003080703464891711
-43.39918920703889,0.0031076679245172177
-42.61738662117392,0.003133759745245801
-41.83558403530901,0.003159189632164188
-41.053781449444045,0.0031839047697543323
-40.271978863579136,0.003208993912029205
-39.49017627771417,0.003232437400476305
-38.708373691849204,0.003255274609765263
-37.926571105984294,0.003277032608167102
-37.14476852011933,0.0032985051602247677
-36.36296593425436,0.003319187253878778
-35.58116334838945,0.0033407855881884725
-34.799360762524486,0.003363434530809025
-34.01755817665952,0.003386396797369906
-33.23575559079461,0.0034090899141460845
-32.453953004929645,0.003430809374910503
-31.672150419064735,0.0034525329371020326
-30.89034783319977,0.003473081765091895
-30.108545247334803,0.0034931164338163666
-29.326742661469893,0.00351332622660422
-28.544940075604927,0.003533772737018998
-27.76313748973996,0.0035535119524955526
-26.98133490387505,0.0035731308220783753
-26.199532318010085,0.0035932222850384387
-25.41772973214512,0.0036132276357294137
-24.63592714628021,0.00363346105086544
-23.854124560415244,0.003654572399262486
-23.072321974550334,0.0036765643009110424
-22.290519388685368,0.003698270410016982
-21.508716802820402,0.00372087956646081
-20.726914216955493,0.0037428386631088544
-19.945111631090526,0.0037645071537631214
-19.16330904522556,0.003785775805711677
-18.38150645936065,0.0038069805481149637
-17.599703873495685,0.0038286974589572384
-16.817901287630775,0.0038502886934578275
-16.03609870176581,0.003871417447017294
-15.254296115900843,0.0038913301697017706
-14.472493530035933,0.003909958664647793
-13.690690944170967,0.003927184449730647
-12.908888358306001,0.003943524443400094
-12.127085772441092,0.003959867194368826
-11.345283186576125,0.003977427373368616
-10.56348060071116,0.003996081252176372
-9.78167801484625,0.004014866443277723
-8.999875428981284,0.004032995428955347
-8.218072843116374,0.004049525176365793
-7.436270257251408,0.004063919393250992
-6.654467671386442,0.004077897550514607
-5.8726650855215325,0.004091076627731488
-5.090862499656566,0.004103800235445302
-4.3090599137916,0.004116839633119962
-3.5272573279266908,0.004129711569288431
-2.7454547420617246,0.004142460057472919
-1.9636521561968152,0.004154737631605343
-1.181849570331849,0.004166715553455531
-0.4000469844668828,0.004178440001954195
0.38175560139802656,0.004188904729141941
1.1635581872629928,0.004198905145802617
1.945360773127959,0.004207787432681978
2.7271633589928683,0.00421573753908068
3.5089659448578345,0.00422343334212617
4.290768530722801,0.004231144927593313
5.07257111658771,0.004239593646112299
5.854373702452676,0.00424721831570525
6.636176288317586,0.0042540294970527725
7.417978874182552,0.004260761283327694
8.199781460047518,0.0042671684837719765
8.981584045912427,0.004273093133644675
9.763386631777394,0.004278900645578899
